# TOPAS Version: 3.9
# Parameter File: Fig_6_8_scorers.txt
# Results for scorer: DoseElectrons
# Filtered by: OnlyIncludeParticlesNamed = 2 "e-" "e+"
# Scored in component: Phantom
# X in 1 bin  of 30 cm
# Y in 1 bin  of 30 cm
# Z in 1500 bins of 0.01 cm
# DoseToWater ( Gy ) : Sum   
0, 0, 0, 2.663215958875753e-08
0, 0, 1, 3.267191406308712e-09
0, 0, 2, 1.105527558387109e-09
0, 0, 3, 5.410553671758578e-10
0, 0, 4, 4.22298473967686e-10
0, 0, 5, 3.087298194870414e-10
0, 0, 6, 2.578427471533473e-10
0, 0, 7, 2.246571678687914e-10
0, 0, 8, 2.124277281856379e-10
0, 0, 9, 2.028724549463234e-10
0, 0, 10, 1.736961130482939e-10
0, 0, 11, 1.924949227793959e-10
0, 0, 12, 1.913974534417662e-10
0, 0, 13, 2.023237549719781e-10
0, 0, 14, 1.968557261644577e-10
0, 0, 15, 1.821496842246972e-10
0, 0, 16, 1.657746440120178e-10
0, 0, 17, 1.73155614846543e-10
0, 0, 18, 1.732625709571778e-10
0, 0, 19, 1.667765647805908e-10
0, 0, 20, 1.700888874189843e-10
0, 0, 21, 1.774733970894005e-10
0, 0, 22, 1.576405950221016e-10
0, 0, 23, 1.561164253427449e-10
0, 0, 24, 1.583002617877582e-10
0, 0, 25, 1.591285575530677e-10
0, 0, 26, 1.591850679050211e-10
0, 0, 27, 1.626233453455583e-10
0, 0, 28, 1.797078874599123e-10
0, 0, 29, 1.774726615666467e-10
0, 0, 30, 1.687708306441493e-10
0, 0, 31, 1.663792853490165e-10
0, 0, 32, 1.556581252781797e-10
0, 0, 33, 1.686670525469225e-10
0, 0, 34, 1.721634640405867e-10
0, 0, 35, 1.735259019808311e-10
0, 0, 36, 1.663217480407653e-10
0, 0, 37, 1.759668938339232e-10
0, 0, 38, 1.650574676936856e-10
0, 0, 39, 1.593099402397158e-10
0, 0, 40, 1.74033398803175e-10
0, 0, 41, 1.656752512957382e-10
0, 0, 42, 1.764416529548285e-10
0, 0, 43, 1.652016162756453e-10
0, 0, 44, 1.696745938195576e-10
0, 0, 45, 1.746370548172393e-10
0, 0, 46, 1.756209344616622e-10
0, 0, 47, 1.597862120394922e-10
0, 0, 48, 1.621392048400949e-10
0, 0, 49, 1.7990244016719e-10
0, 0, 50, 1.959671036555477e-10
0, 0, 51, 2.000401511104144e-10
0, 0, 52, 1.691562168115723e-10
0, 0, 53, 1.720728975973529e-10
0, 0, 54, 1.640770158628513e-10
0, 0, 55, 1.656601522626033e-10
0, 0, 56, 1.811350930358557e-10
0, 0, 57, 1.783564823609751e-10
0, 0, 58, 1.730943582911593e-10
0, 0, 59, 1.560621354368408e-10
0, 0, 60, 1.562862478321492e-10
0, 0, 61, 1.682046030238027e-10
0, 0, 62, 1.618114670032256e-10
0, 0, 63, 1.553664558118228e-10
0, 0, 64, 1.608928268392873e-10
0, 0, 65, 1.617555811517235e-10
0, 0, 66, 1.776082891868924e-10
0, 0, 67, 1.819655398582753e-10
0, 0, 68, 1.705943719620961e-10
0, 0, 69, 1.73164926842162e-10
0, 0, 70, 1.474411009949605e-10
0, 0, 71, 1.667181670494955e-10
0, 0, 72, 1.68888555918123e-10
0, 0, 73, 1.746653377487917e-10
0, 0, 74, 1.7268400598347e-10
0, 0, 75, 1.751734174382236e-10
0, 0, 76, 1.804063148869162e-10
0, 0, 77, 1.653823189506909e-10
0, 0, 78, 1.754486833593916e-10
0, 0, 79, 1.544958466714874e-10
0, 0, 80, 1.686123324295963e-10
0, 0, 81, 1.614710171127243e-10
0, 0, 82, 1.587631276445123e-10
0, 0, 83, 1.665165783037992e-10
0, 0, 84, 1.546465872026559e-10
0, 0, 85, 1.527385024013839e-10
0, 0, 86, 1.505860020012406e-10
0, 0, 87, 1.657848580638444e-10
0, 0, 88, 1.706726704409078e-10
0, 0, 89, 1.576368202638179e-10
0, 0, 90, 1.702549629056804e-10
0, 0, 91, 1.896776208321072e-10
0, 0, 92, 1.650733438829377e-10
0, 0, 93, 1.618673806103033e-10
0, 0, 94, 1.620821948877804e-10
0, 0, 95, 1.639609559234145e-10
0, 0, 96, 1.594477189170718e-10
0, 0, 97, 1.56795340600091e-10
0, 0, 98, 1.700154322881176e-10
0, 0, 99, 1.645260178095853e-10
0, 0, 100, 1.757544942915246e-10
0, 0, 101, 1.739663690880633e-10
0, 0, 102, 1.555373052575248e-10
0, 0, 103, 1.777960140225687e-10
0, 0, 104, 1.776652158724801e-10
0, 0, 105, 1.50171194923665e-10
0, 0, 106, 1.581255543170457e-10
0, 0, 107, 1.823800832578826e-10
0, 0, 108, 1.549166767089716e-10
0, 0, 109, 1.784949549277215e-10
0, 0, 110, 1.786678860415947e-10
0, 0, 111, 1.592946607953394e-10
0, 0, 112, 1.395786264346555e-10
0, 0, 113, 1.629964913041348e-10
0, 0, 114, 1.692651296902881e-10
0, 0, 115, 1.404245192349052e-10
0, 0, 116, 1.45131781592589e-10
0, 0, 117, 1.511274161369869e-10
0, 0, 118, 1.451537917640522e-10
0, 0, 119, 1.526050397160361e-10
0, 0, 120, 1.444761255076088e-10
0, 0, 121, 1.437096552869832e-10
0, 0, 122, 1.546284211784155e-10
0, 0, 123, 1.453408504659137e-10
0, 0, 124, 1.534657123603012e-10
0, 0, 125, 1.567016377768127e-10
0, 0, 126, 1.577658143014915e-10
0, 0, 127, 1.53940721281387e-10
0, 0, 128, 1.513222464000208e-10
0, 0, 129, 1.620182599193498e-10
0, 0, 130, 1.53958415460842e-10
0, 0, 131, 1.492314744000467e-10
0, 0, 132, 1.451131298457753e-10
0, 0, 133, 1.685394046546662e-10
0, 0, 134, 1.555724993274055e-10
0, 0, 135, 1.526007931129669e-10
0, 0, 136, 1.662235904476006e-10
0, 0, 137, 1.567747182074086e-10
0, 0, 138, 1.589024745118905e-10
0, 0, 139, 1.622864759243114e-10
0, 0, 140, 1.570560903552121e-10
0, 0, 141, 1.516996112060909e-10
0, 0, 142, 1.254222836699626e-10
0, 0, 143, 1.264552768054372e-10
0, 0, 144, 1.262236565269248e-10
0, 0, 145, 1.246047015568408e-10
0, 0, 146, 1.345606265301669e-10
0, 0, 147, 1.458619058869459e-10
0, 0, 148, 1.401571914083632e-10
0, 0, 149, 1.349251266269391e-10
0, 0, 150, 1.43940456776015e-10
0, 0, 151, 1.375720648510992e-10
0, 0, 152, 1.243868064104703e-10
0, 0, 153, 1.294616358560319e-10
0, 0, 154, 1.2768915091943e-10
0, 0, 155, 1.288926881892749e-10
0, 0, 156, 1.342993355413213e-10
0, 0, 157, 1.418671985442543e-10
0, 0, 158, 1.320992482067851e-10
0, 0, 159, 1.289671980320151e-10
0, 0, 160, 1.489914303043349e-10
0, 0, 161, 1.686180778337487e-10
0, 0, 162, 1.49876291932749e-10
0, 0, 163, 1.320268061544283e-10
0, 0, 164, 1.508347613476957e-10
0, 0, 165, 1.442751057512126e-10
0, 0, 166, 1.412859967908631e-10
0, 0, 167, 1.473810795626918e-10
0, 0, 168, 1.405031507806243e-10
0, 0, 169, 1.384168751838999e-10
0, 0, 170, 1.349637901437717e-10
0, 0, 171, 1.281052347534839e-10
0, 0, 172, 1.165857410612148e-10
0, 0, 173, 1.292924239892912e-10
0, 0, 174, 1.402233884562065e-10
0, 0, 175, 1.426918444513703e-10
0, 0, 176, 1.30936303466278e-10
0, 0, 177, 1.381692954494085e-10
0, 0, 178, 1.303513130768152e-10
0, 0, 179, 1.392849585668543e-10
0, 0, 180, 1.376437297473387e-10
0, 0, 181, 1.395169257900619e-10
0, 0, 182, 1.310574565538403e-10
0, 0, 183, 1.47769338432191e-10
0, 0, 184, 1.399661359036131e-10
0, 0, 185, 1.298958440809628e-10
0, 0, 186, 1.27968247110033e-10
0, 0, 187, 1.263482374280755e-10
0, 0, 188, 1.469687843647094e-10
0, 0, 189, 1.272401906060594e-10
0, 0, 190, 1.225314849584436e-10
0, 0, 191, 1.353790968217083e-10
0, 0, 192, 1.413007905126662e-10
0, 0, 193, 1.366867313778997e-10
0, 0, 194, 1.242110025945209e-10
0, 0, 195, 1.375212860255104e-10
0, 0, 196, 1.365867419167444e-10
0, 0, 197, 1.475757016589085e-10
0, 0, 198, 1.501429813810518e-10
0, 0, 199, 1.364365426193004e-10
0, 0, 200, 1.459612986032255e-10
0, 0, 201, 1.545063105234945e-10
0, 0, 202, 1.403706872959987e-10
0, 0, 203, 1.404321797737751e-10
0, 0, 204, 1.428036300321622e-10
0, 0, 205, 1.443674624290736e-10
0, 0, 206, 1.34125405226726e-10
0, 0, 207, 1.376898733917997e-10
0, 0, 208, 1.457673565186113e-10
0, 0, 209, 1.616961703421183e-10
0, 0, 210, 1.470006477655161e-10
0, 0, 211, 1.41025108257864e-10
0, 0, 212, 1.293515849987159e-10
0, 0, 213, 1.397278126535895e-10
0, 0, 214, 1.455249948323356e-10
0, 0, 215, 1.530768428681384e-10
0, 0, 216, 1.613635058905771e-10
0, 0, 217, 1.566026197608039e-10
0, 0, 218, 1.609997690721343e-10
0, 0, 219, 1.505626040509966e-10
0, 0, 220, 1.539105648484806e-10
0, 0, 221, 1.540722133208661e-10
0, 0, 222, 1.416756434391431e-10
0, 0, 223, 1.522201809045498e-10
0, 0, 224, 1.747527816897687e-10
0, 0, 225, 1.462572563060149e-10
0, 0, 226, 1.517038994425235e-10
0, 0, 227, 1.428290541394261e-10
0, 0, 228, 1.347003342200281e-10
0, 0, 229, 1.373891417300044e-10
0, 0, 230, 1.385288134203577e-10
0, 0, 231, 1.462747145630772e-10
0, 0, 232, 1.414347805539506e-10
0, 0, 233, 1.534369992173268e-10
0, 0, 234, 1.336731558776449e-10
0, 0, 235, 1.547730693607363e-10
0, 0, 236, 1.510290087436417e-10
0, 0, 237, 1.520515796604727e-10
0, 0, 238, 1.394610538163477e-10
0, 0, 239, 1.507446112380961e-10
0, 0, 240, 1.354954898280525e-10
0, 0, 241, 1.21775409200886e-10
0, 0, 242, 1.186724329915734e-10
0, 0, 243, 1.218131845392989e-10
0, 0, 244, 1.324325232809898e-10
0, 0, 245, 1.236480917654603e-10
0, 0, 246, 1.333251981039396e-10
0, 0, 247, 1.411976230381029e-10
0, 0, 248, 1.308259195420547e-10
0, 0, 249, 1.354916318030419e-10
0, 0, 250, 1.285421907804007e-10
0, 0, 251, 1.354949208387524e-10
0, 0, 252, 1.452202663676516e-10
0, 0, 253, 1.339836019909058e-10
0, 0, 254, 1.380645181514595e-10
0, 0, 255, 1.417593264996242e-10
0, 0, 256, 1.380604797152074e-10
0, 0, 257, 1.220943485202852e-10
0, 0, 258, 1.619377687500645e-10
0, 0, 259, 1.406420535587927e-10
0, 0, 260, 1.268244675944885e-10
0, 0, 261, 1.384046210972656e-10
0, 0, 262, 1.453527020967016e-10
0, 0, 263, 1.289289647266045e-10
0, 0, 264, 1.336895177894704e-10
0, 0, 265, 1.380796726957456e-10
0, 0, 266, 1.231249824318326e-10
0, 0, 267, 1.487158313162595e-10
0, 0, 268, 1.364560964223216e-10
0, 0, 269, 1.391245590953716e-10
0, 0, 270, 1.54145224362523e-10
0, 0, 271, 1.541202027111055e-10
0, 0, 272, 1.355950074444223e-10
0, 0, 273, 1.425377454955523e-10
0, 0, 274, 1.296940332906615e-10
0, 0, 275, 1.350975442626634e-10
0, 0, 276, 1.324064746732745e-10
0, 0, 277, 1.343360284122852e-10
0, 0, 278, 1.439645486156493e-10
0, 0, 279, 1.457206161292746e-10
0, 0, 280, 1.382933628724103e-10
0, 0, 281, 1.415611794453042e-10
0, 0, 282, 1.439251356982751e-10
0, 0, 283, 1.385696279943005e-10
0, 0, 284, 1.661419335441394e-10
0, 0, 285, 1.45570458465194e-10
0, 0, 286, 1.641037167265935e-10
0, 0, 287, 1.194740417709284e-10
0, 0, 288, 1.422758300062554e-10
0, 0, 289, 1.246950043221062e-10
0, 0, 290, 1.133565949440474e-10
0, 0, 291, 1.007096767091653e-10
0, 0, 292, 1.261517001971413e-10
0, 0, 293, 1.316849268517828e-10
0, 0, 294, 1.397301996330924e-10
0, 0, 295, 1.29387320302321e-10
0, 0, 296, 1.235761076801012e-10
0, 0, 297, 1.188244364014324e-10
0, 0, 298, 1.264722077065628e-10
0, 0, 299, 1.004945987537198e-10
0, 0, 300, 1.020600687295925e-10
0, 0, 301, 1.025073498306384e-10
0, 0, 302, 1.244618852425106e-10
0, 0, 303, 1.144827774246515e-10
0, 0, 304, 1.284667233703018e-10
0, 0, 305, 1.255362064300769e-10
0, 0, 306, 1.354300421807508e-10
0, 0, 307, 1.190978843323975e-10
0, 0, 308, 1.076767633390041e-10
0, 0, 309, 1.137940505713253e-10
0, 0, 310, 1.183899228651697e-10
0, 0, 311, 1.182053621651136e-10
0, 0, 312, 1.33469374441475e-10
0, 0, 313, 1.14563691866465e-10
0, 0, 314, 9.068847756088516e-11
0, 0, 315, 1.027991095026159e-10
0, 0, 316, 1.027677110077008e-10
0, 0, 317, 8.887934138668285e-11
0, 0, 318, 1.115981959620704e-10
0, 0, 319, 1.068683544436233e-10
0, 0, 320, 1.05994053811731e-10
0, 0, 321, 1.001425470326112e-10
0, 0, 322, 1.161546206440711e-10
0, 0, 323, 1.200297916614801e-10
0, 0, 324, 1.3901910178582e-10
0, 0, 325, 1.342341376942002e-10
0, 0, 326, 1.261652032846783e-10
0, 0, 327, 1.134169633210114e-10
0, 0, 328, 1.06195517657337e-10
0, 0, 329, 1.08406818244422e-10
0, 0, 330, 1.265360455304787e-10
0, 0, 331, 1.232179358545693e-10
0, 0, 332, 1.042743946744196e-10
0, 0, 333, 1.062201576695898e-10
0, 0, 334, 1.046209299748746e-10
0, 0, 335, 1.102504615380084e-10
0, 0, 336, 1.253602638362494e-10
0, 0, 337, 1.230592711065626e-10
0, 0, 338, 1.016169579037829e-10
0, 0, 339, 1.244954972445811e-10
0, 0, 340, 1.045436515134668e-10
0, 0, 341, 1.121120973834877e-10
0, 0, 342, 1.139955768669765e-10
0, 0, 343, 1.035897270740271e-10
0, 0, 344, 1.356236095650942e-10
0, 0, 345, 1.025447018965231e-10
0, 0, 346, 1.004262506487663e-10
0, 0, 347, 9.228116881754289e-11
0, 0, 348, 1.005388688968267e-10
0, 0, 349, 9.916913817908934e-11
0, 0, 350, 9.312731835686705e-11
0, 0, 351, 1.041944377999648e-10
0, 0, 352, 1.078172134905131e-10
0, 0, 353, 9.002385642498112e-11
0, 0, 354, 8.983715854560259e-11
0, 0, 355, 7.868312251746445e-11
0, 0, 356, 9.478200863055619e-11
0, 0, 357, 8.699763826003348e-11
0, 0, 358, 1.200122640154788e-10
0, 0, 359, 9.423736790914461e-11
0, 0, 360, 1.118942022371172e-10
0, 0, 361, 1.140822089573668e-10
0, 0, 362, 9.924183697052058e-11
0, 0, 363, 8.921348382262551e-11
0, 0, 364, 8.36731586795203e-11
0, 0, 365, 7.630204107433869e-11
0, 0, 366, 8.119895034131019e-11
0, 0, 367, 9.012651736028943e-11
0, 0, 368, 8.081242619528695e-11
0, 0, 369, 6.973896460316098e-11
0, 0, 370, 7.525383094453275e-11
0, 0, 371, 7.49493453411354e-11
0, 0, 372, 7.918030120457331e-11
0, 0, 373, 8.519160377140622e-11
0, 0, 374, 7.336961593829017e-11
0, 0, 375, 8.514156046857124e-11
0, 0, 376, 9.082350149736129e-11
0, 0, 377, 9.016069141276617e-11
0, 0, 378, 9.114964338863274e-11
0, 0, 379, 8.491709418967375e-11
0, 0, 380, 7.32318719554037e-11
0, 0, 381, 8.191016614977897e-11
0, 0, 382, 7.333209733895174e-11
0, 0, 383, 8.99112381769207e-11
0, 0, 384, 1.003807245658628e-10
0, 0, 385, 7.860963963102208e-11
0, 0, 386, 6.346313752292332e-11
0, 0, 387, 6.31047297749987e-11
0, 0, 388, 6.319715584179875e-11
0, 0, 389, 5.239164657666606e-11
0, 0, 390, 6.36696459443975e-11
0, 0, 391, 7.518671102380026e-11
0, 0, 392, 6.59094237520641e-11
0, 0, 393, 6.386875056607622e-11
0, 0, 394, 5.143508535754293e-11
0, 0, 395, 6.115979944709693e-11
0, 0, 396, 5.960558435713637e-11
0, 0, 397, 4.789798072057927e-11
0, 0, 398, 5.889106563516933e-11
0, 0, 399, 5.222482168942832e-11
0, 0, 400, 7.145218444692958e-11
0, 0, 401, 4.705266731797053e-11
0, 0, 402, 4.63959599905639e-11
0, 0, 403, 5.094490107548921e-11
0, 0, 404, 5.443371448032863e-11
0, 0, 405, 5.335751285251433e-11
0, 0, 406, 6.03467414928005e-11
0, 0, 407, 4.654504212608934e-11
0, 0, 408, 5.92398144427797e-11
0, 0, 409, 4.927269703358661e-11
0, 0, 410, 3.519924976491673e-11
0, 0, 411, 4.104406398086624e-11
0, 0, 412, 3.948048485358235e-11
0, 0, 413, 4.782644419387694e-11
0, 0, 414, 3.144690410850082e-11
0, 0, 415, 3.302478082667371e-11
0, 0, 416, 4.089854496736045e-11
0, 0, 417, 4.577165382824155e-11
0, 0, 418, 5.434802954895623e-11
0, 0, 419, 5.508251840757872e-11
0, 0, 420, 4.299075678781961e-11
0, 0, 421, 4.758898483614438e-11
0, 0, 422, 5.241109976572567e-11
0, 0, 423, 4.865579120161279e-11
0, 0, 424, 4.426429014992017e-11
0, 0, 425, 5.000939939936444e-11
0, 0, 426, 3.611926382984798e-11
0, 0, 427, 3.320177119348067e-11
0, 0, 428, 3.869661535649271e-11
0, 0, 429, 3.232618686621613e-11
0, 0, 430, 4.012967735889106e-11
0, 0, 431, 3.359271194547375e-11
0, 0, 432, 2.954335040494804e-11
0, 0, 433, 2.546298241701273e-11
0, 0, 434, 3.940968731908079e-11
0, 0, 435, 3.725619118766232e-11
0, 0, 436, 2.971029325338215e-11
0, 0, 437, 3.490877031886441e-11
0, 0, 438, 3.031621134685913e-11
0, 0, 439, 2.500563645035925e-11
0, 0, 440, 3.234540760232996e-11
0, 0, 441, 3.189569788841773e-11
0, 0, 442, 2.759820497133525e-11
0, 0, 443, 3.03964180214944e-11
0, 0, 444, 3.38673464272965e-11
0, 0, 445, 3.05423186741649e-11
0, 0, 446, 2.875584839689971e-11
0, 0, 447, 2.80213179049138e-11
0, 0, 448, 2.886343247743284e-11
0, 0, 449, 3.835973552690497e-11
0, 0, 450, 2.621801907520815e-11
0, 0, 451, 3.779333096476378e-11
0, 0, 452, 3.9992554407009e-11
0, 0, 453, 2.521878192385252e-11
0, 0, 454, 2.725662404112761e-11
0, 0, 455, 1.424084895146338e-11
0, 0, 456, 1.5342499840032e-11
0, 0, 457, 1.705102031790418e-11
0, 0, 458, 2.616043839887006e-11
0, 0, 459, 2.493366103861749e-11
0, 0, 460, 2.478462053645547e-11
0, 0, 461, 2.07655628803316e-11
0, 0, 462, 2.035921604914837e-11
0, 0, 463, 2.471721785579639e-11
0, 0, 464, 2.325890174903478e-11
0, 0, 465, 2.104969323846184e-11
0, 0, 466, 1.910336819288538e-11
0, 0, 467, 1.636528586257402e-11
0, 0, 468, 2.552243832942835e-11
0, 0, 469, 2.389931481883156e-11
0, 0, 470, 1.733804246006887e-11
0, 0, 471, 2.655594147360496e-11
0, 0, 472, 1.478337938176644e-11
0, 0, 473, 1.62828014960148e-11
0, 0, 474, 1.877010352702158e-11
0, 0, 475, 1.373065029730558e-11
0, 0, 476, 1.43198855551141e-11
0, 0, 477, 1.196350744164798e-11
0, 0, 478, 1.470124022517894e-11
0, 0, 479, 8.954475182176846e-12
0, 0, 480, 1.084559265313034e-11
0, 0, 481, 7.191863857919367e-12
0, 0, 482, 8.987491306733375e-12
0, 0, 483, 1.024059049364867e-11
0, 0, 484, 3.333006830599783e-12
0, 0, 485, 5.180278081495793e-12
0, 0, 486, 6.202890631690217e-12
0, 0, 487, 3.152806791681395e-12
0, 0, 488, 3.512710088082738e-12
0, 0, 489, 3.125995122477132e-12
0, 0, 490, 3.853684298754656e-12
0, 0, 491, 6.018710703437069e-12
0, 0, 492, 1.403409246453213e-11
0, 0, 493, 5.136294167762401e-12
0, 0, 494, 4.674748435573584e-12
0, 0, 495, 2.40735556489291e-12
0, 0, 496, 2.480006651428557e-12
0, 0, 497, 6.487519289138932e-12
0, 0, 498, 5.988927236078023e-12
0, 0, 499, 1.02253860760626e-12
0, 0, 500, 1.732407403295944e-12
0, 0, 501, 2.600770944091724e-12
0, 0, 502, 9.986212161014474e-13
0, 0, 503, 7.203510249235989e-13
0, 0, 504, 1.588436522072245e-12
0, 0, 505, 7.041637238580645e-13
0, 0, 506, 1.324383202931656e-12
0, 0, 507, 2.253427696177757e-12
0, 0, 508, 3.69499092781056e-12
0, 0, 509, 4.222759728694792e-12
0, 0, 510, 1.589811724107826e-12
0, 0, 511, 3.298520744737798e-12
0, 0, 512, 1.487601166381969e-12
0, 0, 513, 6.339326849916227e-13
0, 0, 514, 5.155737382162018e-12
0, 0, 515, 6.754575197776003e-12
0, 0, 516, 6.022071296490905e-12
0, 0, 517, 1.841367119545523e-12
0, 0, 518, 2.39443946441209e-12
0, 0, 519, 3.482532404813776e-12
0, 0, 520, 3.046069039364108e-12
0, 0, 521, 1.779566403091459e-12
0, 0, 522, 2.355072083529142e-12
0, 0, 523, 1.015211352484169e-12
0, 0, 524, 5.320289781646226e-12
0, 0, 525, 3.789036142134994e-13
0, 0, 526, 1.806392709025051e-12
0, 0, 527, 8.853680050387169e-13
0, 0, 528, 2.376879292345646e-12
0, 0, 529, 1.963445031560873e-12
0, 0, 530, 3.910166461451592e-12
0, 0, 531, 5.565988208527939e-13
0, 0, 532, 1.107277464162948e-12
0, 0, 533, 3.891077998002812e-12
0, 0, 534, 2.062975875197215e-12
0, 0, 535, 4.675029460776692e-12
0, 0, 536, 2.276963123257203e-12
0, 0, 537, 1.982636494216039e-12
0, 0, 538, 1.027111121848501e-12
0, 0, 539, 1.435126648595408e-12
0, 0, 540, 1.710294883147667e-12
0, 0, 541, 1.294077258545689e-12
0, 0, 542, 2.015692707147895e-13
0, 0, 543, 5.435746796254859e-13
0, 0, 544, 1.147687413854959e-12
0, 0, 545, 0
0, 0, 546, 8.470885126156402e-14
0, 0, 547, 2.729866246248269e-12
0, 0, 548, 1.635379115114133e-12
0, 0, 549, 9.055432727451962e-13
0, 0, 550, 7.722982138785167e-14
0, 0, 551, 6.858356113928488e-13
0, 0, 552, 2.503499577782842e-12
0, 0, 553, 5.023829117468959e-13
0, 0, 554, 2.491221855541181e-12
0, 0, 555, 7.5323346735226e-14
0, 0, 556, 3.107842542343642e-12
0, 0, 557, 3.328778442127089e-12
0, 0, 558, 1.213396462300398e-12
0, 0, 559, 7.237737292093913e-14
0, 0, 560, 5.572373075121706e-13
0, 0, 561, 1.124386686052669e-14
0, 0, 562, 0
0, 0, 563, 0
0, 0, 564, 2.01450466551234e-12
0, 0, 565, 5.535728125893868e-12
0, 0, 566, 4.327847542145991e-12
0, 0, 567, 1.551380551800818e-13
0, 0, 568, 6.08734471250344e-13
0, 0, 569, 1.714148137668681e-12
0, 0, 570, 1.671888755910844e-12
0, 0, 571, 5.7145512280532e-12
0, 0, 572, 3.618585059416216e-14
0, 0, 573, 1.066637880450805e-12
0, 0, 574, 0
0, 0, 575, 2.098689061078018e-12
0, 0, 576, 0
0, 0, 577, 0
0, 0, 578, 1.284725039026047e-12
0, 0, 579, 2.114061421580604e-13
0, 0, 580, 8.732560573092296e-13
0, 0, 581, 3.658677527607068e-12
0, 0, 582, 3.613715663514094e-12
0, 0, 583, 7.167482211044296e-13
0, 0, 584, 9.548431923606104e-13
0, 0, 585, 1.157535872708948e-12
0, 0, 586, 1.099631236761711e-12
0, 0, 587, 6.258540560799553e-12
0, 0, 588, 5.687945340421274e-12
0, 0, 589, 4.569583860608573e-12
0, 0, 590, 1.48376742750006e-12
0, 0, 591, 6.10749352567691e-13
0, 0, 592, 9.141871287754455e-13
0, 0, 593, 7.993543327255992e-12
0, 0, 594, 5.802201709544097e-13
0, 0, 595, 3.088535937417758e-12
0, 0, 596, 1.207496667758601e-12
0, 0, 597, 1.749715389937068e-12
0, 0, 598, 0
0, 0, 599, 1.025360569020806e-12
0, 0, 600, 5.883745639138904e-13
0, 0, 601, 2.448895470089085e-12
0, 0, 602, 0
0, 0, 603, 6.867618453088031e-14
0, 0, 604, 2.94861338070876e-15
0, 0, 605, 0
0, 0, 606, 6.031030709563456e-13
0, 0, 607, 3.091176403388629e-12
0, 0, 608, 1.071976600368341e-12
0, 0, 609, 0
0, 0, 610, 6.261394397757969e-13
0, 0, 611, 3.471021755609149e-14
0, 0, 612, 2.049336611867347e-12
0, 0, 613, 8.302565449383459e-13
0, 0, 614, 1.686979786278461e-14
0, 0, 615, 0
0, 0, 616, 9.341174752111603e-13
0, 0, 617, 1.675768248124432e-12
0, 0, 618, 7.233173478574106e-13
0, 0, 619, 7.207661659354436e-13
0, 0, 620, 1.383265680818258e-12
0, 0, 621, 7.212566047881674e-13
0, 0, 622, 5.366134985906705e-14
0, 0, 623, 0
0, 0, 624, 1.855542412429467e-12
0, 0, 625, 0
0, 0, 626, 2.98888355471788e-13
0, 0, 627, 1.418365099849217e-12
0, 0, 628, 5.162425608523646e-12
0, 0, 629, 1.861739061526091e-12
0, 0, 630, 8.360470519011565e-13
0, 0, 631, 1.416973417940615e-12
0, 0, 632, 1.877802384073202e-12
0, 0, 633, 1.181885644040148e-12
0, 0, 634, 3.90575674016555e-13
0, 0, 635, 5.928532946682108e-13
0, 0, 636, 0
0, 0, 637, 0
0, 0, 638, 0
0, 0, 639, 1.509029554959407e-12
0, 0, 640, 4.423658054447666e-12
0, 0, 641, 2.270582593472126e-12
0, 0, 642, 2.174459072003254e-13
0, 0, 643, 0
0, 0, 644, 5.929695753512099e-13
0, 0, 645, 2.159852808755747e-12
0, 0, 646, 5.421293297093455e-13
0, 0, 647, 2.153807866648108e-13
0, 0, 648, 2.544445773869364e-13
0, 0, 649, 3.010693257199382e-12
0, 0, 650, 2.620395003413711e-12
0, 0, 651, 1.01440470606784e-12
0, 0, 652, 2.116816054040238e-12
0, 0, 653, 1.503568211776163e-12
0, 0, 654, 1.875202602788853e-13
0, 0, 655, 5.664778135504658e-14
0, 0, 656, 0
0, 0, 657, 0
0, 0, 658, 3.155531608581286e-12
0, 0, 659, 1.075931513426839e-20
0, 0, 660, 0
0, 0, 661, 6.466945577134064e-13
0, 0, 662, 4.945408977620989e-14
0, 0, 663, 0
0, 0, 664, 3.997401910350862e-13
0, 0, 665, 1.013690867357475e-12
0, 0, 666, 6.312426980865232e-14
0, 0, 667, 2.781665685552132e-13
0, 0, 668, 2.532616315015918e-13
0, 0, 669, 1.809365266121354e-12
0, 0, 670, 0
0, 0, 671, 2.220275178987929e-12
0, 0, 672, 1.140238402828897e-12
0, 0, 673, 1.066003188499032e-12
0, 0, 674, 1.146313268916496e-13
0, 0, 675, 0
0, 0, 676, 1.607745376717637e-13
0, 0, 677, 4.312118018342734e-14
0, 0, 678, 2.802765344030872e-13
0, 0, 679, 1.916762972301034e-12
0, 0, 680, 6.537245788099111e-13
0, 0, 681, 6.989985304982349e-13
0, 0, 682, 3.359050450985057e-12
0, 0, 683, 1.29647540533101e-13
0, 0, 684, 5.159273954780975e-14
0, 0, 685, 2.514623708912977e-13
0, 0, 686, 0
0, 0, 687, 2.694000316610153e-14
0, 0, 688, 1.327787380912826e-12
0, 0, 689, 5.194846289247046e-13
0, 0, 690, 1.532872787035622e-12
0, 0, 691, 9.740537369740121e-13
0, 0, 692, 4.323790891297419e-12
0, 0, 693, 0
0, 0, 694, 0
0, 0, 695, 7.012039603473963e-14
0, 0, 696, 5.136475012684771e-13
0, 0, 697, 0
0, 0, 698, 2.146480591197226e-14
0, 0, 699, 1.531152700288974e-12
0, 0, 700, 0
0, 0, 701, 4.721566020104984e-12
0, 0, 702, 4.418095663621946e-12
0, 0, 703, 2.649068898269435e-12
0, 0, 704, 1.205242177761134e-12
0, 0, 705, 0
0, 0, 706, 2.143687571204422e-12
0, 0, 707, 2.417301927203075e-13
0, 0, 708, 0
0, 0, 709, 0
0, 0, 710, 1.680319502686729e-15
0, 0, 711, 4.815773431074422e-13
0, 0, 712, 0
0, 0, 713, 1.235748265868142e-12
0, 0, 714, 3.155532042262155e-12
0, 0, 715, 6.935864643037304e-13
0, 0, 716, 3.117252549839078e-12
0, 0, 717, 0
0, 0, 718, 0
0, 0, 719, 0
0, 0, 720, 5.947355238497543e-13
0, 0, 721, 4.833834612964771e-13
0, 0, 722, 0
0, 0, 723, 2.783229159294964e-12
0, 0, 724, 5.339046804490877e-13
0, 0, 725, 4.075601618344638e-13
0, 0, 726, 3.780758258548067e-13
0, 0, 727, 2.348245025079326e-13
0, 0, 728, 2.311907176116845e-13
0, 0, 729, 1.554707100906438e-12
0, 0, 730, 1.424972878409647e-12
0, 0, 731, 2.460759894462594e-12
0, 0, 732, 1.465894029425985e-12
0, 0, 733, 0
0, 0, 734, 1.306137137465843e-13
0, 0, 735, 1.93447124638424e-12
0, 0, 736, 1.880637355913817e-12
0, 0, 737, 1.143278397300329e-12
0, 0, 738, 2.050968119296503e-12
0, 0, 739, 5.147363438262609e-12
0, 0, 740, 8.456434337500429e-13
0, 0, 741, 0
0, 0, 742, 0
0, 0, 743, 1.279948044254076e-12
0, 0, 744, 2.202169788753996e-13
0, 0, 745, 9.364096954442291e-14
0, 0, 746, 2.227382232648789e-14
0, 0, 747, 0
0, 0, 748, 7.476957963360731e-13
0, 0, 749, 1.4388641103244e-12
0, 0, 750, 4.17736510530467e-13
0, 0, 751, 9.240693063169991e-13
0, 0, 752, 0
0, 0, 753, 0
0, 0, 754, 1.601616300521413e-12
0, 0, 755, 3.116133924247616e-13
0, 0, 756, 0
0, 0, 757, 9.756199754323847e-13
0, 0, 758, 0
0, 0, 759, 0
0, 0, 760, 9.848777609428039e-13
0, 0, 761, 9.726210722232898e-13
0, 0, 762, 1.651475316092124e-13
0, 0, 763, 3.600535126123405e-13
0, 0, 764, 2.659665022941571e-12
0, 0, 765, 2.254513633073718e-12
0, 0, 766, 6.559390075371041e-13
0, 0, 767, 0
0, 0, 768, 1.425722387371486e-12
0, 0, 769, 1.893015908957518e-12
0, 0, 770, 4.867282385511221e-14
0, 0, 771, 0
0, 0, 772, 6.20186085646679e-13
0, 0, 773, 1.721321869763148e-12
0, 0, 774, 1.579522645490938e-12
0, 0, 775, 9.406955466320643e-13
0, 0, 776, 1.611382143169859e-12
0, 0, 777, 1.21928975162916e-12
0, 0, 778, 0
0, 0, 779, 0
0, 0, 780, 0
0, 0, 781, 9.723081714763104e-13
0, 0, 782, 2.669078716724393e-12
0, 0, 783, 0
0, 0, 784, 0
0, 0, 785, 0
0, 0, 786, 0
0, 0, 787, 5.164433334106655e-13
0, 0, 788, 0
0, 0, 789, 9.537965035832929e-13
0, 0, 790, 0
0, 0, 791, 5.080999564107307e-20
0, 0, 792, 2.173253547607668e-12
0, 0, 793, 0
0, 0, 794, 6.318993180272348e-13
0, 0, 795, 8.155078175253738e-13
0, 0, 796, 3.009883575016969e-12
0, 0, 797, 2.699357291781768e-14
0, 0, 798, 5.38833571945424e-15
0, 0, 799, 0
0, 0, 800, 3.348513516975276e-15
0, 0, 801, 5.840437183358971e-13
0, 0, 802, 2.361594860639249e-12
0, 0, 803, 0
0, 0, 804, 1.353570033835183e-12
0, 0, 805, 2.354403347629153e-12
0, 0, 806, 2.733599154328137e-12
0, 0, 807, 2.78050369187377e-12
0, 0, 808, 1.509868293760042e-12
0, 0, 809, 2.250256404823237e-12
0, 0, 810, 2.256406650066878e-12
0, 0, 811, 1.475271077175377e-12
0, 0, 812, 1.984510862931832e-12
0, 0, 813, 5.14798598715005e-13
0, 0, 814, 2.656052244462415e-12
0, 0, 815, 7.682212613442652e-13
0, 0, 816, 1.588248846676188e-12
0, 0, 817, 0
0, 0, 818, 9.699984955882646e-13
0, 0, 819, 1.137765656157846e-14
0, 0, 820, 1.051263432859037e-13
0, 0, 821, 9.542428560651781e-14
0, 0, 822, 1.142129359837929e-12
0, 0, 823, 9.828751311100059e-13
0, 0, 824, 7.53001786900527e-14
0, 0, 825, 0
0, 0, 826, 2.201634734981875e-13
0, 0, 827, 8.323214079758445e-13
0, 0, 828, 3.06642189938644e-12
0, 0, 829, 4.896057449982165e-14
0, 0, 830, 1.845877617423497e-12
0, 0, 831, 1.182867063846682e-12
0, 0, 832, 1.86633369349265e-12
0, 0, 833, 5.202920125985111e-12
0, 0, 834, 1.545740206838897e-12
0, 0, 835, 1.070727816306072e-12
0, 0, 836, 8.365223119234655e-13
0, 0, 837, 1.614473311983833e-12
0, 0, 838, 2.044189687314124e-12
0, 0, 839, 1.253759791298992e-12
0, 0, 840, 5.787909756506393e-13
0, 0, 841, 5.16987928161905e-13
0, 0, 842, 2.397399336342976e-12
0, 0, 843, 4.433977490725383e-12
0, 0, 844, 5.314270074344152e-13
0, 0, 845, 3.972621656547076e-13
0, 0, 846, 2.674225316016965e-13
0, 0, 847, 5.25242989293101e-13
0, 0, 848, 1.184240531158787e-12
0, 0, 849, 2.812517579942053e-12
0, 0, 850, 2.016758071307634e-12
0, 0, 851, 2.535187500467967e-13
0, 0, 852, 3.603473856111927e-13
0, 0, 853, 3.271159927133171e-13
0, 0, 854, 3.334632917018077e-13
0, 0, 855, 2.081905828288377e-12
0, 0, 856, 3.916689889083003e-12
0, 0, 857, 8.070680625540949e-13
0, 0, 858, 3.233573890419617e-13
0, 0, 859, 4.299594263523082e-13
0, 0, 860, 2.565802605103418e-12
0, 0, 861, 3.509038762686267e-12
0, 0, 862, 1.392520322142377e-12
0, 0, 863, 1.270137315635689e-12
0, 0, 864, 1.310499018331024e-12
0, 0, 865, 2.38960609112715e-12
0, 0, 866, 2.917514970932067e-12
0, 0, 867, 2.704869314640312e-12
0, 0, 868, 2.254753085899775e-14
0, 0, 869, 0
0, 0, 870, 2.004923354073651e-12
0, 0, 871, 8.450838905613503e-14
0, 0, 872, 0
0, 0, 873, 1.885728850630972e-13
0, 0, 874, 2.11207245269518e-12
0, 0, 875, 6.17201764956804e-13
0, 0, 876, 1.280922308326271e-12
0, 0, 877, 1.05655241500191e-12
0, 0, 878, 2.063765391219219e-12
0, 0, 879, 9.315848873564514e-13
0, 0, 880, 0
0, 0, 881, 0
0, 0, 882, 1.309435849680685e-12
0, 0, 883, 3.674799451281602e-13
0, 0, 884, 1.454200258474425e-12
0, 0, 885, 8.415180444837356e-13
0, 0, 886, 3.458246492990535e-12
0, 0, 887, 1.686322956273578e-12
0, 0, 888, 1.903256198476644e-12
0, 0, 889, 0
0, 0, 890, 1.227597125515179e-13
0, 0, 891, 1.611344196093822e-12
0, 0, 892, 0
0, 0, 893, 1.004194015268023e-12
0, 0, 894, 1.020137316634639e-12
0, 0, 895, 1.977337998199102e-12
0, 0, 896, 4.432187581358826e-13
0, 0, 897, 1.243994924432501e-12
0, 0, 898, 2.086959945135636e-12
0, 0, 899, 1.406628394491627e-12
0, 0, 900, 1.625288662335245e-12
0, 0, 901, 0
0, 0, 902, 0
0, 0, 903, 1.015333108388139e-12
0, 0, 904, 3.043459364734935e-12
0, 0, 905, 0
0, 0, 906, 4.309619609961512e-13
0, 0, 907, 0
0, 0, 908, 0
0, 0, 909, 6.957819330454321e-14
0, 0, 910, 3.200463169223539e-13
0, 0, 911, 4.082225483754802e-14
0, 0, 912, 0
0, 0, 913, 0
0, 0, 914, 0
0, 0, 915, 0
0, 0, 916, 0
0, 0, 917, 1.267922507437735e-12
0, 0, 918, 1.586243181077307e-12
0, 0, 919, 2.035168041036872e-12
0, 0, 920, 3.651253019550105e-13
0, 0, 921, 3.188540360563041e-12
0, 0, 922, 3.946754490065374e-13
0, 0, 923, 6.479165294559497e-12
0, 0, 924, 2.841711241319267e-12
0, 0, 925, 3.523265229912753e-12
0, 0, 926, 1.793454301084532e-13
0, 0, 927, 0
0, 0, 928, 7.326378002533995e-13
0, 0, 929, 1.636774591730339e-12
0, 0, 930, 1.070986073263558e-12
0, 0, 931, 0
0, 0, 932, 1.226741825526359e-13
0, 0, 933, 7.351231711034967e-13
0, 0, 934, 1.033982361536845e-12
0, 0, 935, 1.674745411794909e-12
0, 0, 936, 1.463858331426926e-12
0, 0, 937, 4.428405992601414e-12
0, 0, 938, 3.459784108511554e-12
0, 0, 939, 2.480799420057078e-12
0, 0, 940, 2.450594252263044e-13
0, 0, 941, 3.56270243341561e-12
0, 0, 942, 3.380993618753991e-12
0, 0, 943, 0
0, 0, 944, 1.824262447916794e-13
0, 0, 945, 9.83968765841392e-14
0, 0, 946, 0
0, 0, 947, 1.863896407008903e-12
0, 0, 948, 2.219928884814037e-12
0, 0, 949, 2.211748850473177e-13
0, 0, 950, 2.371546698170385e-13
0, 0, 951, 0
0, 0, 952, 7.987863842595644e-13
0, 0, 953, 1.516354424836719e-12
0, 0, 954, 2.081870916978423e-12
0, 0, 955, 3.49160912856139e-13
