# TOPAS Version: 3.9
# Parameter File: Fig_6_8_scorers.txt
# Results for scorer: DoseTotal
# Scored in component: Phantom
# X in 1 bin  of 30 cm
# Y in 1 bin  of 30 cm
# Z in 1500 bins of 0.01 cm
# DoseToWater ( Gy ) : Sum   
0, 0, 0, 2.663444220729616e-08
0, 0, 1, 3.26789240112646e-09
0, 0, 2, 1.105960767411318e-09
0, 0, 3, 5.413541837029356e-10
0, 0, 4, 4.225592653561705e-10
0, 0, 5, 3.088844735543717e-10
0, 0, 6, 2.580342606250952e-10
0, 0, 7, 2.247362296259325e-10
0, 0, 8, 2.125732229130151e-10
0, 0, 9, 2.029878209963698e-10
0, 0, 10, 1.738014177021796e-10
0, 0, 11, 1.926396542284436e-10
0, 0, 12, 1.915519687312184e-10
0, 0, 13, 2.025090095614246e-10
0, 0, 14, 1.969136104174041e-10
0, 0, 15, 1.822083456337609e-10
0, 0, 16, 1.658520265568342e-10
0, 0, 17, 1.732129994991283e-10
0, 0, 18, 1.733685139893026e-10
0, 0, 19, 1.668339494331761e-10
0, 0, 20, 1.701669360976155e-10
0, 0, 21, 1.775121438729599e-10
0, 0, 22, 1.576896807575778e-10
0, 0, 23, 1.561463458532586e-10
0, 0, 24, 1.583586317632779e-10
0, 0, 25, 1.591961007463283e-10
0, 0, 26, 1.59204205374408e-10
0, 0, 27, 1.626525580888938e-10
0, 0, 28, 1.797559601168786e-10
0, 0, 29, 1.775018604321943e-10
0, 0, 30, 1.6878190511882e-10
0, 0, 31, 1.664369198017823e-10
0, 0, 32, 1.556976630956441e-10
0, 0, 33, 1.687347206402734e-10
0, 0, 34, 1.721921494279854e-10
0, 0, 35, 1.736026600251961e-10
0, 0, 36, 1.663698206977315e-10
0, 0, 37, 1.760348811163936e-10
0, 0, 38, 1.651054015727738e-10
0, 0, 39, 1.593295495538882e-10
0, 0, 40, 1.74053257917528e-10
0, 0, 41, 1.657140258348733e-10
0, 0, 42, 1.764615120691815e-10
0, 0, 43, 1.652595144063795e-10
0, 0, 44, 1.697037926851053e-10
0, 0, 45, 1.746853633965983e-10
0, 0, 46, 1.75642389521613e-10
0, 0, 47, 1.597962873134406e-10
0, 0, 48, 1.62168875550428e-10
0, 0, 49, 1.799125154411385e-10
0, 0, 50, 1.959960527209148e-10
0, 0, 51, 2.000689475201156e-10
0, 0, 52, 1.6918541567712e-10
0, 0, 53, 1.72082709193333e-10
0, 0, 54, 1.641064645285795e-10
0, 0, 55, 1.656888515277899e-10
0, 0, 56, 1.811544525498476e-10
0, 0, 57, 1.783756059525743e-10
0, 0, 58, 1.731134818827584e-10
0, 0, 59, 1.561009099759758e-10
0, 0, 60, 1.562970725066393e-10
0, 0, 61, 1.682245731604581e-10
0, 0, 62, 1.618220141219595e-10
0, 0, 63, 1.554049527952017e-10
0, 0, 64, 1.608938121622216e-10
0, 0, 65, 1.617842804169101e-10
0, 0, 66, 1.776465502478786e-10
0, 0, 67, 1.819667888591781e-10
0, 0, 68, 1.706236679721584e-10
0, 0, 69, 1.731957355310954e-10
0, 0, 70, 1.474604743867403e-10
0, 0, 71, 1.667380261638485e-10
0, 0, 72, 1.689268169791092e-10
0, 0, 73, 1.746942868141588e-10
0, 0, 74, 1.7272300256721e-10
0, 0, 75, 1.751927769522155e-10
0, 0, 76, 1.804065646870967e-10
0, 0, 77, 1.654117814942069e-10
0, 0, 78, 1.75477896102727e-10
0, 0, 79, 1.545251565593375e-10
0, 0, 80, 1.68613581430499e-10
0, 0, 81, 1.614808148309166e-10
0, 0, 82, 1.587631276445123e-10
0, 0, 83, 1.665561161212636e-10
0, 0, 84, 1.546760219905963e-10
0, 0, 85, 1.527485915531201e-10
0, 0, 86, 1.505964103420965e-10
0, 0, 87, 1.658137932514236e-10
0, 0, 88, 1.706741553642033e-10
0, 0, 89, 1.576561936555976e-10
0, 0, 90, 1.702740864972796e-10
0, 0, 91, 1.89697271779643e-10
0, 0, 92, 1.650933140195932e-10
0, 0, 93, 1.618965794758509e-10
0, 0, 94, 1.621013323571674e-10
0, 0, 95, 1.639706148637288e-10
0, 0, 96, 1.594477189170718e-10
0, 0, 97, 1.567958402004521e-10
0, 0, 98, 1.700264790072126e-10
0, 0, 99, 1.64545391201365e-10
0, 0, 100, 1.757736178831237e-10
0, 0, 101, 1.739950683532498e-10
0, 0, 102, 1.555380546580665e-10
0, 0, 103, 1.777960140225687e-10
0, 0, 104, 1.776942620823618e-10
0, 0, 105, 1.501714447238456e-10
0, 0, 106, 1.581449277088254e-10
0, 0, 107, 1.823898948538627e-10
0, 0, 108, 1.549176481541181e-10
0, 0, 109, 1.785240982821179e-10
0, 0, 110, 1.786965853067812e-10
0, 0, 111, 1.593433440749692e-10
0, 0, 112, 1.395891735533894e-10
0, 0, 113, 1.630062890223272e-10
0, 0, 114, 1.692754547644171e-10
0, 0, 115, 1.404436567042922e-10
0, 0, 116, 1.451607167801683e-10
0, 0, 117, 1.51137227732967e-10
0, 0, 118, 1.451641029603934e-10
0, 0, 119, 1.526538478957562e-10
0, 0, 120, 1.444866726263427e-10
0, 0, 121, 1.437192170827828e-10
0, 0, 122, 1.546480582481635e-10
0, 0, 123, 1.453505232840158e-10
0, 0, 124, 1.534657123603012e-10
0, 0, 125, 1.567213719910754e-10
0, 0, 126, 1.577854374934518e-10
0, 0, 127, 1.539694066687858e-10
0, 0, 128, 1.513422165366762e-10
0, 0, 129, 1.620374945332514e-10
0, 0, 130, 1.53958415460842e-10
0, 0, 131, 1.49260409587626e-10
0, 0, 132, 1.451425646337157e-10
0, 0, 133, 1.685489803282536e-10
0, 0, 134, 1.556016704373775e-10
0, 0, 135, 1.526206661051077e-10
0, 0, 136, 1.662253112932888e-10
0, 0, 137, 1.567845298033888e-10
0, 0, 138, 1.589215981034897e-10
0, 0, 139, 1.62306224016362e-10
0, 0, 140, 1.570563401553926e-10
0, 0, 141, 1.517192205202633e-10
0, 0, 142, 1.254318454657621e-10
0, 0, 143, 1.264552768054372e-10
0, 0, 144, 1.262236565269248e-10
0, 0, 145, 1.246147490752136e-10
0, 0, 146, 1.34580110944249e-10
0, 0, 147, 1.458714676827455e-10
0, 0, 148, 1.401579130533293e-10
0, 0, 149, 1.349253625493319e-10
0, 0, 150, 1.43941178420981e-10
0, 0, 151, 1.375816266468988e-10
0, 0, 152, 1.243963820840577e-10
0, 0, 153, 1.294711976518315e-10
0, 0, 154, 1.277097733121124e-10
0, 0, 155, 1.289022499850745e-10
0, 0, 156, 1.34318570155223e-10
0, 0, 157, 1.41868669589762e-10
0, 0, 158, 1.321280584942741e-10
0, 0, 159, 1.289775092283563e-10
0, 0, 160, 1.489914303043349e-10
0, 0, 161, 1.686180778337487e-10
0, 0, 162, 1.498861035287291e-10
0, 0, 163, 1.320273057547894e-10
0, 0, 164, 1.508350111478762e-10
0, 0, 165, 1.442942432205996e-10
0, 0, 166, 1.413051203824622e-10
0, 0, 167, 1.473810795626918e-10
0, 0, 168, 1.405324051573231e-10
0, 0, 169, 1.384264508574873e-10
0, 0, 170, 1.349741013401129e-10
0, 0, 171, 1.281052347534839e-10
0, 0, 172, 1.165857410612148e-10
0, 0, 173, 1.293306850502773e-10
0, 0, 174, 1.402425259255935e-10
0, 0, 175, 1.426923301739436e-10
0, 0, 176, 1.309555380801797e-10
0, 0, 177, 1.381884190410076e-10
0, 0, 178, 1.303517987993885e-10
0, 0, 179, 1.392945203626539e-10
0, 0, 180, 1.376634778393893e-10
0, 0, 181, 1.39526598608164e-10
0, 0, 182, 1.310574565538403e-10
0, 0, 183, 1.47788475901578e-10
0, 0, 184, 1.399853566397269e-10
0, 0, 185, 1.29906155277304e-10
0, 0, 186, 1.27968746710394e-10
0, 0, 187, 1.263577992238751e-10
0, 0, 188, 1.46997983230257e-10
0, 0, 189, 1.272416755293548e-10
0, 0, 190, 1.225513440727966e-10
0, 0, 191, 1.3539833143561e-10
0, 0, 192, 1.413007905126662e-10
0, 0, 193, 1.366967788962725e-10
0, 0, 194, 1.242205643903205e-10
0, 0, 195, 1.375220215482642e-10
0, 0, 196, 1.365879909176471e-10
0, 0, 197, 1.475757016589085e-10
0, 0, 198, 1.501437169038056e-10
0, 0, 199, 1.364365426193004e-10
0, 0, 200, 1.459806581172174e-10
0, 0, 201, 1.545256839152742e-10
0, 0, 202, 1.403706872959987e-10
0, 0, 203, 1.404341504196438e-10
0, 0, 204, 1.428232671019103e-10
0, 0, 205, 1.444255964822005e-10
0, 0, 206, 1.341352168227061e-10
0, 0, 207, 1.376908587147341e-10
0, 0, 208, 1.457869935883593e-10
0, 0, 209, 1.617158212896541e-10
0, 0, 210, 1.47001161243665e-10
0, 0, 211, 1.41025108257864e-10
0, 0, 212, 1.293611467945155e-10
0, 0, 213, 1.397378879275379e-10
0, 0, 214, 1.45535292150889e-10
0, 0, 215, 1.53086404663938e-10
0, 0, 216, 1.613733174865573e-10
0, 0, 217, 1.566136803576867e-10
0, 0, 218, 1.610103023130804e-10
0, 0, 219, 1.50582074587291e-10
0, 0, 220, 1.539108146486612e-10
0, 0, 221, 1.540830241175684e-10
0, 0, 222, 1.416758932393236e-10
0, 0, 223, 1.522297427003494e-10
0, 0, 224, 1.747633288085026e-10
0, 0, 225, 1.462668181018145e-10
0, 0, 226, 1.517135722606255e-10
0, 0, 227, 1.428295537397872e-10
0, 0, 228, 1.34710742560884e-10
0, 0, 229, 1.373994529263456e-10
0, 0, 230, 1.385766362771435e-10
0, 0, 231, 1.462847898370256e-10
0, 0, 232, 1.414539180233376e-10
0, 0, 233, 1.534465610131264e-10
0, 0, 234, 1.336923904915466e-10
0, 0, 235, 1.547832417791994e-10
0, 0, 236, 1.510295222217906e-10
0, 0, 237, 1.520618908568139e-10
0, 0, 238, 1.394711290902961e-10
0, 0, 239, 1.507541730338957e-10
0, 0, 240, 1.35495739628233e-10
0, 0, 241, 1.217945327924852e-10
0, 0, 242, 1.186731685143272e-10
0, 0, 243, 1.218326550755933e-10
0, 0, 244, 1.324332726815314e-10
0, 0, 245, 1.236480917654603e-10
0, 0, 246, 1.333264887382057e-10
0, 0, 247, 1.412174960302437e-10
0, 0, 248, 1.308259195420547e-10
0, 0, 249, 1.355212608800116e-10
0, 0, 250, 1.285522660543492e-10
0, 0, 251, 1.354949208387524e-10
0, 0, 252, 1.452303277638123e-10
0, 0, 253, 1.339931637867053e-10
0, 0, 254, 1.380743297474396e-10
0, 0, 255, 1.417593264996242e-10
0, 0, 256, 1.380900255254502e-10
0, 0, 257, 1.221047568611411e-10
0, 0, 258, 1.619473305458641e-10
0, 0, 259, 1.406516153545923e-10
0, 0, 260, 1.268244675944885e-10
0, 0, 261, 1.38414918415819e-10
0, 0, 262, 1.453720754884813e-10
0, 0, 263, 1.289481993405062e-10
0, 0, 264, 1.336993293854505e-10
0, 0, 265, 1.380892344915452e-10
0, 0, 266, 1.231347801500249e-10
0, 0, 267, 1.487261286348129e-10
0, 0, 268, 1.36465672095909e-10
0, 0, 269, 1.391534942829509e-10
0, 0, 270, 1.541467786747575e-10
0, 0, 271, 1.541202027111055e-10
0, 0, 272, 1.356141310360215e-10
0, 0, 273, 1.425568829649393e-10
0, 0, 274, 1.297038310088539e-10
0, 0, 275, 1.350975442626634e-10
0, 0, 276, 1.324072101960283e-10
0, 0, 277, 1.343360284122852e-10
0, 0, 278, 1.439742214337514e-10
0, 0, 279, 1.457496623391563e-10
0, 0, 280, 1.383046455138981e-10
0, 0, 281, 1.415708522634063e-10
0, 0, 282, 1.439253716206679e-10
0, 0, 283, 1.385791897901001e-10
0, 0, 284, 1.661723536550141e-10
0, 0, 285, 1.456088166706948e-10
0, 0, 286, 1.641042163269546e-10
0, 0, 287, 1.194747634158944e-10
0, 0, 288, 1.422758300062554e-10
0, 0, 289, 1.246957537226479e-10
0, 0, 290, 1.133757254745404e-10
0, 0, 291, 1.007096767091653e-10
0, 0, 292, 1.261517001971413e-10
0, 0, 293, 1.31704050443382e-10
0, 0, 294, 1.397400112290725e-10
0, 0, 295, 1.294255813633072e-10
0, 0, 296, 1.235959945500298e-10
0, 0, 297, 1.188339981972319e-10
0, 0, 298, 1.265118981796931e-10
0, 0, 299, 1.004953412153675e-10
0, 0, 300, 1.020696305253921e-10
0, 0, 301, 1.025073498306384e-10
0, 0, 302, 1.244815223122586e-10
0, 0, 303, 1.144827774246515e-10
0, 0, 304, 1.284674588930557e-10
0, 0, 305, 1.255364562302574e-10
0, 0, 306, 1.354300421807508e-10
0, 0, 307, 1.191075571504996e-10
0, 0, 308, 1.076777486619385e-10
0, 0, 309, 1.137950289553658e-10
0, 0, 310, 1.183899228651697e-10
0, 0, 311, 1.182340614303001e-10
0, 0, 312, 1.33479047259577e-10
0, 0, 313, 1.145639347277516e-10
0, 0, 314, 9.069977408016072e-11
0, 0, 315, 1.02818240033109e-10
0, 0, 316, 1.027682314247436e-10
0, 0, 317, 8.887934138668285e-11
0, 0, 318, 1.115987094402193e-10
0, 0, 319, 1.068782631841181e-10
0, 0, 320, 1.060144125264451e-10
0, 0, 321, 1.001427898938978e-10
0, 0, 322, 1.161546206440711e-10
0, 0, 323, 1.200305410620217e-10
0, 0, 324, 1.3901910178582e-10
0, 0, 325, 1.342538719084629e-10
0, 0, 326, 1.261755144810195e-10
0, 0, 327, 1.134169633210114e-10
0, 0, 328, 1.062050863920305e-10
0, 0, 329, 1.084170114795668e-10
0, 0, 330, 1.265554189222584e-10
0, 0, 331, 1.232179358545693e-10
0, 0, 332, 1.042746375357062e-10
0, 0, 333, 1.062216495317791e-10
0, 0, 334, 1.046305958540827e-10
0, 0, 335, 1.102601274172166e-10
0, 0, 336, 1.253612491591838e-10
0, 0, 337, 1.231166557591479e-10
0, 0, 338, 1.016364353789712e-10
0, 0, 339, 1.2449601072273e-10
0, 0, 340, 1.045443939751145e-10
0, 0, 341, 1.121120973834877e-10
0, 0, 342, 1.139955768669765e-10
0, 0, 343, 1.035897270740271e-10
0, 0, 344, 1.356331713608938e-10
0, 0, 345, 1.025542636923227e-10
0, 0, 346, 1.004272359717007e-10
0, 0, 347, 9.228164760122226e-11
0, 0, 348, 1.005582422886064e-10
0, 0, 349, 9.917869997488893e-11
0, 0, 350, 9.312806081851477e-11
0, 0, 351, 1.042047420574121e-10
0, 0, 352, 1.078174563517997e-10
0, 0, 353, 9.002459888662884e-11
0, 0, 354, 8.984672034140218e-11
0, 0, 355, 7.869354473610812e-11
0, 0, 356, 9.480236040637635e-11
0, 0, 357, 8.701676879052656e-11
0, 0, 358, 1.200322480299221e-10
0, 0, 359, 9.425712294008903e-11
0, 0, 360, 1.118942022371172e-10
0, 0, 361, 1.140824518186534e-10
0, 0, 362, 9.925264776722287e-11
0, 0, 363, 8.921423322316713e-11
0, 0, 364, 8.36731586795203e-11
0, 0, 365, 7.631170695354683e-11
0, 0, 366, 8.120851907600368e-11
0, 0, 367, 9.013608609498291e-11
0, 0, 368, 8.083155672578002e-11
0, 0, 369, 6.973896460316098e-11
0, 0, 370, 7.525383094453275e-11
0, 0, 371, 7.495082332553693e-11
0, 0, 372, 7.91898699392668e-11
0, 0, 373, 8.520190802885352e-11
0, 0, 374, 7.337917773408975e-11
0, 0, 375, 8.515146920906602e-11
0, 0, 376, 9.082424395900901e-11
0, 0, 377, 9.017049606985239e-11
0, 0, 378, 9.115014992788772e-11
0, 0, 379, 8.492666292436724e-11
0, 0, 380, 7.324191947377656e-11
0, 0, 381, 8.191973488447246e-11
0, 0, 382, 7.333209733895174e-11
0, 0, 383, 8.991148103820734e-11
0, 0, 384, 1.003807245658628e-10
0, 0, 385, 7.862951262316287e-11
0, 0, 386, 6.346313752292332e-11
0, 0, 387, 6.31047297749987e-11
0, 0, 388, 6.319866158177589e-11
0, 0, 389, 5.239164657666606e-11
0, 0, 390, 6.366988880568414e-11
0, 0, 391, 7.519677935885483e-11
0, 0, 392, 6.59294979721281e-11
0, 0, 393, 6.38692640442251e-11
0, 0, 394, 5.144465062278947e-11
0, 0, 395, 6.115979944709693e-11
0, 0, 396, 5.960558435713637e-11
0, 0, 397, 4.790754598582581e-11
0, 0, 398, 5.889181503571095e-11
0, 0, 399, 5.223486920780118e-11
0, 0, 400, 7.14529338474712e-11
0, 0, 401, 4.705317385722552e-11
0, 0, 402, 4.63959599905639e-11
0, 0, 403, 5.094490107548921e-11
0, 0, 404, 5.444427200740343e-11
0, 0, 405, 5.336782751830249e-11
0, 0, 406, 6.03467414928005e-11
0, 0, 407, 4.654552784866262e-11
0, 0, 408, 5.92398144427797e-11
0, 0, 409, 4.927269703358661e-11
0, 0, 410, 3.520049876581943e-11
0, 0, 411, 4.104430684215288e-11
0, 0, 412, 3.949103197231629e-11
0, 0, 413, 4.784557472437001e-11
0, 0, 414, 3.144741411720275e-11
0, 0, 415, 3.303606693760841e-11
0, 0, 416, 4.089903068993372e-11
0, 0, 417, 4.577165382824155e-11
0, 0, 418, 5.436777070211285e-11
0, 0, 419, 5.509218775623381e-11
0, 0, 420, 4.299075678781961e-11
0, 0, 421, 4.758898483614438e-11
0, 0, 422, 5.241109976572567e-11
0, 0, 423, 4.865579120161279e-11
0, 0, 424, 4.427395602912831e-11
0, 0, 425, 5.000939939936444e-11
0, 0, 426, 3.611926382984798e-11
0, 0, 427, 3.32020140547673e-11
0, 0, 428, 3.869661535649271e-11
0, 0, 429, 3.233724052420506e-11
0, 0, 430, 4.01299202201777e-11
0, 0, 431, 3.359271194547375e-11
0, 0, 432, 2.954335040494804e-11
0, 0, 433, 2.547254594753579e-11
0, 0, 434, 3.940968731908079e-11
0, 0, 435, 3.727617173265863e-11
0, 0, 436, 2.971029325338215e-11
0, 0, 437, 3.490877031886441e-11
0, 0, 438, 3.031671788611412e-11
0, 0, 439, 2.501530406429087e-11
0, 0, 440, 3.234614659453072e-11
0, 0, 441, 3.189569788841773e-11
0, 0, 442, 2.759820497133525e-11
0, 0, 443, 3.039862458975584e-11
0, 0, 444, 3.387691169254303e-11
0, 0, 445, 3.05423186741649e-11
0, 0, 446, 2.875584839689971e-11
0, 0, 447, 2.80316221623611e-11
0, 0, 448, 2.886343247743284e-11
0, 0, 449, 3.836930079215151e-11
0, 0, 450, 2.621826020177132e-11
0, 0, 451, 3.779333096476378e-11
0, 0, 452, 3.9992554407009e-11
0, 0, 453, 2.522834545437558e-11
0, 0, 454, 2.725662404112761e-11
0, 0, 455, 1.425075942668164e-11
0, 0, 456, 1.5342499840032e-11
0, 0, 457, 1.705102031790418e-11
0, 0, 458, 2.616043839887006e-11
0, 0, 459, 2.49346428921049e-11
0, 0, 460, 2.48039921935117e-11
0, 0, 461, 2.077512814557814e-11
0, 0, 462, 2.0359458910435e-11
0, 0, 463, 2.472826284016794e-11
0, 0, 464, 2.325890174903478e-11
0, 0, 465, 2.104969323846184e-11
0, 0, 466, 1.910336819288538e-11
0, 0, 467, 1.638441465834362e-11
0, 0, 468, 2.552294486868334e-11
0, 0, 469, 2.389931481883156e-11
0, 0, 470, 1.733902604827975e-11
0, 0, 471, 2.656550500412802e-11
0, 0, 472, 1.479343036958625e-11
0, 0, 473, 1.62828014960148e-11
0, 0, 474, 1.878943875488481e-11
0, 0, 475, 1.373089315859222e-11
0, 0, 476, 1.4320127549039e-11
0, 0, 477, 1.196473302378376e-11
0, 0, 478, 1.470124022517894e-11
0, 0, 479, 8.954475182176846e-12
0, 0, 480, 1.085515705101514e-11
0, 0, 481, 7.202411844015044e-12
0, 0, 482, 8.987733300658274e-12
0, 0, 483, 1.025025897494203e-11
0, 0, 484, 3.333006830599783e-12
0, 0, 485, 5.182001529269176e-12
0, 0, 486, 6.202890631690217e-12
0, 0, 487, 3.153049002446728e-12
0, 0, 488, 3.512710088082738e-12
0, 0, 489, 3.125995122477132e-12
0, 0, 490, 3.853684298754656e-12
0, 0, 491, 6.02878250793859e-12
0, 0, 492, 1.403484186507375e-11
0, 0, 493, 5.136294167762401e-12
0, 0, 494, 4.674748435573584e-12
0, 0, 495, 2.40735556489291e-12
0, 0, 496, 2.481254351288653e-12
0, 0, 497, 6.49708368702373e-12
0, 0, 498, 5.988927236078023e-12
0, 0, 499, 1.03210333075171e-12
0, 0, 500, 1.732407403295944e-12
0, 0, 501, 2.601013371697491e-12
0, 0, 502, 9.988637521274324e-13
0, 0, 503, 7.208579978594531e-13
0, 0, 504, 1.588678624417361e-12
0, 0, 505, 7.046707510040273e-13
0, 0, 506, 1.324383202931656e-12
0, 0, 507, 2.254168423101999e-12
0, 0, 508, 3.695497900746414e-12
0, 0, 509, 4.222759728694792e-12
0, 0, 510, 1.599479988560748e-12
0, 0, 511, 3.298520744737798e-12
0, 0, 512, 1.487601166381969e-12
0, 0, 513, 6.349157311014153e-13
0, 0, 514, 5.156477675405391e-12
0, 0, 515, 6.755324598317625e-12
0, 0, 516, 6.032120549587239e-12
0, 0, 517, 1.851542356934299e-12
0, 0, 518, 2.413568693862556e-12
0, 0, 519, 3.482532404813776e-12
0, 0, 520, 3.05563365408934e-12
0, 0, 521, 1.779808830697227e-12
0, 0, 522, 2.365225203193599e-12
0, 0, 523, 1.025620127020899e-12
0, 0, 524, 5.329854179531024e-12
0, 0, 525, 3.789036142134994e-13
0, 0, 526, 1.806392709025051e-12
0, 0, 527, 8.949326739740582e-13
0, 0, 528, 2.376879292345646e-12
0, 0, 529, 1.963445031560873e-12
0, 0, 530, 3.910166461451592e-12
0, 0, 531, 5.571057937886481e-13
0, 0, 532, 1.107277464162948e-12
0, 0, 533, 3.90240617598181e-12
0, 0, 534, 2.062975875197215e-12
0, 0, 535, 4.675770187700934e-12
0, 0, 536, 2.276963123257203e-12
0, 0, 537, 2.002215233887217e-12
0, 0, 538, 1.027353224193617e-12
0, 0, 539, 1.435611178546292e-12
0, 0, 540, 1.710537310753435e-12
0, 0, 541, 1.294584339901761e-12
0, 0, 542, 2.015692707147895e-13
0, 0, 543, 5.435746796254859e-13
0, 0, 544, 1.147687413854959e-12
0, 0, 545, 0
0, 0, 546, 8.495096038294361e-14
0, 0, 547, 2.730350667778936e-12
0, 0, 548, 1.644943838259583e-12
0, 0, 549, 9.057853750903122e-13
0, 0, 550, 7.79703856817679e-14
0, 0, 551, 6.858356113928488e-13
0, 0, 552, 2.513409836160663e-12
0, 0, 553, 5.026250140920119e-13
0, 0, 554, 2.500786687106848e-12
0, 0, 555, 7.5323346735226e-14
0, 0, 556, 3.108084536268541e-12
0, 0, 557, 3.328778442127089e-12
0, 0, 558, 1.213396462300398e-12
0, 0, 559, 7.288437296184766e-14
0, 0, 560, 5.574794098572866e-13
0, 0, 561, 1.175086690143523e-14
0, 0, 562, 0
0, 0, 563, 0
0, 0, 564, 2.015752365372436e-12
0, 0, 565, 5.54590314644221e-12
0, 0, 566, 4.328588269070233e-12
0, 0, 567, 1.648062925279498e-13
0, 0, 568, 6.0897657359546e-13
0, 0, 569, 1.714148137668681e-12
0, 0, 570, 1.681557020363766e-12
0, 0, 571, 5.715291521296573e-12
0, 0, 572, 3.618585059416216e-14
0, 0, 573, 1.06737849895483e-12
0, 0, 574, 0
0, 0, 575, 2.098689061078018e-12
0, 0, 576, 0
0, 0, 577, 0
0, 0, 578, 1.284967575052032e-12
0, 0, 579, 2.121467064519766e-13
0, 0, 580, 8.732560573092296e-13
0, 0, 581, 3.669224646341007e-12
0, 0, 582, 3.613957657438993e-12
0, 0, 583, 7.167482211044296e-13
0, 0, 584, 9.652519668973403e-13
0, 0, 585, 1.157778300314716e-12
0, 0, 586, 1.099631236761711e-12
0, 0, 587, 6.258540560799553e-12
0, 0, 588, 5.687945340421274e-12
0, 0, 589, 4.570090833544427e-12
0, 0, 590, 1.503000306678215e-12
0, 0, 591, 6.10749352567691e-13
0, 0, 592, 9.141871287754455e-13
0, 0, 593, 7.994049866510977e-12
0, 0, 594, 5.809696257061403e-13
0, 0, 595, 3.09820420187068e-12
0, 0, 596, 1.207738770103717e-12
0, 0, 597, 1.749715389937068e-12
0, 0, 598, 0
0, 0, 599, 1.026109644301776e-12
0, 0, 600, 5.883745639138904e-13
0, 0, 601, 2.459200594898125e-12
0, 0, 602, 0
0, 0, 603, 7.834443543127539e-14
0, 0, 604, 3.455613209859057e-15
0, 0, 605, 0
0, 0, 606, 6.126677398916869e-13
0, 0, 607, 3.091176403388629e-12
0, 0, 608, 1.081644864821263e-12
0, 0, 609, 0
0, 0, 610, 6.266464127116511e-13
0, 0, 611, 3.545077846187593e-14
0, 0, 612, 2.05900487632027e-12
0, 0, 613, 8.400633162188031e-13
0, 0, 614, 1.761036046263494e-14
0, 0, 615, 0
0, 0, 616, 9.346244481470145e-13
0, 0, 617, 1.685436512577354e-12
0, 0, 618, 7.233173478574106e-13
0, 0, 619, 7.210082682805596e-13
0, 0, 620, 1.383772653754112e-12
0, 0, 621, 7.214987613433921e-13
0, 0, 622, 5.366134985906705e-14
0, 0, 623, 0
0, 0, 624, 1.855542412429467e-12
0, 0, 625, 0
0, 0, 626, 3.08556592819656e-13
0, 0, 627, 1.419105609933025e-12
0, 0, 628, 5.163408763053656e-12
0, 0, 629, 1.861739061526091e-12
0, 0, 630, 8.360470519011565e-13
0, 0, 631, 1.416973417940615e-12
0, 0, 632, 1.877802384073202e-12
0, 0, 633, 1.182626154123956e-12
0, 0, 634, 3.90817776361671e-13
0, 0, 635, 5.928532946682108e-13
0, 0, 636, 0
0, 0, 637, 0
0, 0, 638, 0
0, 0, 639, 1.509029554959407e-12
0, 0, 640, 4.423658054447666e-12
0, 0, 641, 2.270582593472126e-12
0, 0, 642, 2.181725801539067e-13
0, 0, 643, 0
0, 0, 644, 6.036204522330557e-13
0, 0, 645, 2.169521073208669e-12
0, 0, 646, 5.421293297093455e-13
0, 0, 647, 2.251878832059198e-13
0, 0, 648, 2.554585774687534e-13
0, 0, 649, 3.011433767283189e-12
0, 0, 650, 2.620395003413711e-12
0, 0, 651, 1.01440470606784e-12
0, 0, 652, 2.126380668765471e-12
0, 0, 653, 1.504075184712017e-12
0, 0, 654, 1.882608110202744e-13
0, 0, 655, 5.688989047642617e-14
0, 0, 656, 0
0, 0, 657, 0
0, 0, 658, 3.156272118665093e-12
0, 0, 659, 1.075931513426839e-20
0, 0, 660, 0
0, 0, 661, 6.569997909426639e-13
0, 0, 662, 5.912233728847319e-14
0, 0, 663, 0
0, 0, 664, 4.094084283829541e-13
0, 0, 665, 1.013932969702591e-12
0, 0, 666, 7.27925207090474e-14
0, 0, 667, 2.796476700379913e-13
0, 0, 668, 2.532616315015918e-13
0, 0, 669, 1.810114666662976e-12
0, 0, 670, 0
0, 0, 671, 2.220275178987929e-12
0, 0, 672, 1.140238402828897e-12
0, 0, 673, 1.066003188499032e-12
0, 0, 674, 1.242995777920447e-13
0, 0, 675, 0
0, 0, 676, 1.612815377126722e-13
0, 0, 677, 4.312118018342734e-14
0, 0, 678, 2.899447988560094e-13
0, 0, 679, 1.916762972301034e-12
0, 0, 680, 6.55243437633346e-13
0, 0, 681, 6.989985304982349e-13
0, 0, 682, 3.368857493316058e-12
0, 0, 683, 1.303970088373588e-13
0, 0, 684, 5.183484866918935e-14
0, 0, 685, 2.514623708912977e-13
0, 0, 686, 0
0, 0, 687, 3.660824898429893e-14
0, 0, 688, 1.327787380912826e-12
0, 0, 689, 5.194846289247046e-13
0, 0, 690, 1.532872787035622e-12
0, 0, 691, 9.745608183300836e-13
0, 0, 692, 4.323790891297419e-12
0, 0, 693, 0
0, 0, 694, 0
0, 0, 695, 7.062739607564816e-14
0, 0, 696, 5.138896036135931e-13
0, 0, 697, 0
0, 0, 698, 2.170726739905791e-14
0, 0, 699, 1.531152700288974e-12
0, 0, 700, 0
0, 0, 701, 4.731476495323239e-12
0, 0, 702, 4.418337657546845e-12
0, 0, 703, 2.649068898269435e-12
0, 0, 704, 1.205991361462322e-12
0, 0, 705, 0
0, 0, 706, 2.143687571204422e-12
0, 0, 707, 2.419726474311296e-13
0, 0, 708, 0
0, 0, 709, 0
0, 0, 710, 1.124495783896276e-14
0, 0, 711, 4.815773431074422e-13
0, 0, 712, 0
0, 0, 713, 1.236255238803996e-12
0, 0, 714, 3.155532042262155e-12
0, 0, 715, 6.935864643037304e-13
0, 0, 716, 3.117759522774932e-12
0, 0, 717, 0
0, 0, 718, 0
0, 0, 719, 0
0, 0, 720, 6.043001927850955e-13
0, 0, 721, 4.833834612964771e-13
0, 0, 722, 0
0, 0, 723, 2.783736132230819e-12
0, 0, 724, 5.346452447430039e-13
0, 0, 725, 4.075601618344638e-13
0, 0, 726, 3.780758258548067e-13
0, 0, 727, 2.355650396967945e-13
0, 0, 728, 2.311907176116845e-13
0, 0, 729, 1.554707100906438e-12
0, 0, 730, 1.425713388493455e-12
0, 0, 731, 2.460759894462594e-12
0, 0, 732, 1.466378993057738e-12
0, 0, 733, 0
0, 0, 734, 1.401783555768712e-13
0, 0, 735, 1.93447124638424e-12
0, 0, 736, 1.880637355913817e-12
0, 0, 737, 1.152843120445779e-12
0, 0, 738, 2.051708846220746e-12
0, 0, 739, 5.147605432187508e-12
0, 0, 740, 8.456434337500429e-13
0, 0, 741, 0
0, 0, 742, 0
0, 0, 743, 1.279948044254076e-12
0, 0, 744, 2.202169788753996e-13
0, 0, 745, 9.364096954442291e-14
0, 0, 746, 2.251592805973569e-14
0, 0, 747, 0
0, 0, 748, 7.476957963360731e-13
0, 0, 749, 1.4388641103244e-12
0, 0, 750, 4.17736510530467e-13
0, 0, 751, 9.338764570682168e-13
0, 0, 752, 0
0, 0, 753, 0
0, 0, 754, 1.603097429109246e-12
0, 0, 755, 3.123539567186778e-13
0, 0, 756, 0
0, 0, 757, 9.756199754323847e-13
0, 0, 758, 0
0, 0, 759, 0
0, 0, 760, 9.848777609428039e-13
0, 0, 761, 9.726210722232898e-13
0, 0, 762, 1.651475316092124e-13
0, 0, 763, 3.600535126123405e-13
0, 0, 764, 2.669736610602658e-12
0, 0, 765, 2.264078247798951e-12
0, 0, 766, 6.564459804729583e-13
0, 0, 767, 0
0, 0, 768, 1.425722387371486e-12
0, 0, 769, 1.893015908957518e-12
0, 0, 770, 4.891492958836001e-14
0, 0, 771, 0
0, 0, 772, 6.211687522857112e-13
0, 0, 773, 1.721321869763148e-12
0, 0, 774, 1.581003774078771e-12
0, 0, 775, 9.406955466320643e-13
0, 0, 776, 1.611382143169859e-12
0, 0, 777, 1.22885447477461e-12
0, 0, 778, 0
0, 0, 779, 0
0, 0, 780, 0
0, 0, 781, 9.728151444121647e-13
0, 0, 782, 2.669078716724393e-12
0, 0, 783, 0
0, 0, 784, 0
0, 0, 785, 0
0, 0, 786, 0
0, 0, 787, 5.355726170712394e-13
0, 0, 788, 0
0, 0, 789, 9.636032206536416e-13
0, 0, 790, 0
0, 0, 791, 5.080999564107307e-20
0, 0, 792, 2.173253547607668e-12
0, 0, 793, 0
0, 0, 794, 6.41463986962576e-13
0, 0, 795, 8.250724322506064e-13
0, 0, 796, 3.009883575016969e-12
0, 0, 797, 2.773413551766801e-14
0, 0, 798, 5.63079847708931e-15
0, 0, 799, 0
0, 0, 800, 3.590976274610346e-15
0, 0, 801, 5.840437183358971e-13
0, 0, 802, 2.361594860639249e-12
0, 0, 803, 0
0, 0, 804, 1.363987373569076e-12
0, 0, 805, 2.354403347629153e-12
0, 0, 806, 2.733599154328137e-12
0, 0, 807, 2.78050369187377e-12
0, 0, 808, 1.509868293760042e-12
0, 0, 809, 2.250763594599525e-12
0, 0, 810, 2.257389370916019e-12
0, 0, 811, 1.475271077175377e-12
0, 0, 812, 1.985260263473454e-12
0, 0, 813, 5.14798598715005e-13
0, 0, 814, 2.657299944322511e-12
0, 0, 815, 7.682212613442652e-13
0, 0, 816, 1.588248846676188e-12
0, 0, 817, 0
0, 0, 818, 9.699984955882646e-13
0, 0, 819, 1.161976314185921e-14
0, 0, 820, 1.051263432859037e-13
0, 0, 821, 1.053346388520289e-13
0, 0, 822, 1.142869869921737e-12
0, 0, 823, 9.828751311100059e-13
0, 0, 824, 7.554264017713835e-14
0, 0, 825, 0
0, 0, 826, 2.201634734981875e-13
0, 0, 827, 8.328283809116988e-13
0, 0, 828, 3.067647047841349e-12
0, 0, 829, 4.920268023306945e-14
0, 0, 830, 1.855545881876419e-12
0, 0, 831, 1.192535328299604e-12
0, 0, 832, 1.875898308217883e-12
0, 0, 833, 5.202920125985111e-12
0, 0, 834, 1.545740206838897e-12
0, 0, 835, 1.070727816306072e-12
0, 0, 836, 8.365223119234655e-13
0, 0, 837, 1.614473311983833e-12
0, 0, 838, 2.044189687314124e-12
0, 0, 839, 1.253759791298992e-12
0, 0, 840, 5.792980027966022e-13
0, 0, 841, 5.16987928161905e-13
0, 0, 842, 2.407067600795898e-12
0, 0, 843, 4.443784749896817e-12
0, 0, 844, 5.319339803702694e-13
0, 0, 845, 3.972621656547076e-13
0, 0, 846, 2.674225316016965e-13
0, 0, 847, 5.25242989293101e-13
0, 0, 848, 1.184240531158787e-12
0, 0, 849, 2.812517579942053e-12
0, 0, 850, 2.016758071307634e-12
0, 0, 851, 2.537612047576188e-13
0, 0, 852, 3.603473856111927e-13
0, 0, 853, 3.271159927133171e-13
0, 0, 854, 3.334632917018077e-13
0, 0, 855, 2.0915740927413e-12
0, 0, 856, 3.916689889083003e-12
0, 0, 857, 8.167363270070171e-13
0, 0, 858, 3.233573890419617e-13
0, 0, 859, 4.299594263523082e-13
0, 0, 860, 2.565802605103418e-12
0, 0, 861, 3.509038762686267e-12
0, 0, 862, 1.392520322142377e-12
0, 0, 863, 1.270137315635689e-12
0, 0, 864, 1.320305735401373e-12
0, 0, 865, 2.390113064063004e-12
0, 0, 866, 2.918497691781208e-12
0, 0, 867, 2.704869314640312e-12
0, 0, 868, 2.305453089990629e-14
0, 0, 869, 0
0, 0, 870, 2.004923354073651e-12
0, 0, 871, 9.417663318026653e-14
0, 0, 872, 0
0, 0, 873, 1.885728850630972e-13
0, 0, 874, 2.112821853236801e-12
0, 0, 875, 6.17201764956804e-13
0, 0, 876, 1.290486923051504e-12
0, 0, 877, 1.066220571034615e-12
0, 0, 878, 2.064007818824987e-12
0, 0, 879, 9.320918602923056e-13
0, 0, 880, 0
0, 0, 881, 0
0, 0, 882, 1.309435849680685e-12
0, 0, 883, 3.674799451281602e-13
0, 0, 884, 1.454442686080193e-12
0, 0, 885, 8.415180444837356e-13
0, 0, 886, 3.467811107715768e-12
0, 0, 887, 1.686322956273578e-12
0, 0, 888, 1.912924462929566e-12
0, 0, 889, 0
0, 0, 890, 1.230018148966339e-13
0, 0, 891, 1.611586298438938e-12
0, 0, 892, 0
0, 0, 893, 1.004436117613139e-12
0, 0, 894, 1.020137316634639e-12
0, 0, 895, 1.987409802700624e-12
0, 0, 896, 4.432187581358826e-13
0, 0, 897, 1.253559539157734e-12
0, 0, 898, 2.086959945135636e-12
0, 0, 899, 1.406628394491627e-12
0, 0, 900, 1.625288662335245e-12
0, 0, 901, 0
0, 0, 902, 0
0, 0, 903, 1.015333108388139e-12
0, 0, 904, 3.06269224391309e-12
0, 0, 905, 0
0, 0, 906, 4.317025252900675e-13
0, 0, 907, 0
0, 0, 908, 0
0, 0, 909, 7.031875759845943e-14
0, 0, 910, 3.20531226343998e-13
0, 0, 911, 4.156281574333245e-14
0, 0, 912, 0
0, 0, 913, 0
0, 0, 914, 0
0, 0, 915, 0
0, 0, 916, 0
0, 0, 917, 1.267922507437735e-12
0, 0, 918, 1.586727711028191e-12
0, 0, 919, 2.035168041036872e-12
0, 0, 920, 3.651253019550105e-13
0, 0, 921, 3.188540360563041e-12
0, 0, 922, 3.946754490065374e-13
0, 0, 923, 6.479165294559497e-12
0, 0, 924, 2.841711241319267e-12
0, 0, 925, 3.523265229912753e-12
0, 0, 926, 1.793454301084532e-13
0, 0, 927, 0
0, 0, 928, 7.326378002533995e-13
0, 0, 929, 1.636774591730339e-12
0, 0, 930, 1.070986073263558e-12
0, 0, 931, 0
0, 0, 932, 1.23414733294025e-13
0, 0, 933, 7.353656529193731e-13
0, 0, 934, 1.033982361536845e-12
0, 0, 935, 1.674745411794909e-12
0, 0, 936, 1.463858331426926e-12
0, 0, 937, 4.428648420207182e-12
0, 0, 938, 3.459784108511554e-12
0, 0, 939, 2.481041413981977e-12
0, 0, 940, 2.453018799371265e-13
0, 0, 941, 3.56270243341561e-12
0, 0, 942, 3.390661666366479e-12
0, 0, 943, 0
0, 0, 944, 1.836738091265042e-13
0, 0, 945, 9.890387662504774e-14
0, 0, 946, 0
0, 0, 947, 1.863896407008903e-12
0, 0, 948, 2.219928884814037e-12
0, 0, 949, 2.211748850473177e-13
0, 0, 950, 2.373967721621545e-13
0, 0, 951, 0
0, 0, 952, 7.992933571954186e-13
0, 0, 953, 1.516354424836719e-12
0, 0, 954, 2.082378106754712e-12
0, 0, 955, 3.499014771500553e-13
0, 0, 956, 8.564571035880875e-13
0, 0, 957, 0
0, 0, 958, 0
0, 0, 959, 0
