# TOPAS Version: 3.9
# Parameter File: Fig_6_9_Air_Pb.txt
# Results for scorer: DoseOnRTGrid
# Scored in component: Scorer
# X in 1 bin  of 1 cm
# Y in 1 bin  of 1 cm
# Z in 200 bins of 0.02 cm
# DoseToMedium ( Gy ) : Sum   Standard_Deviation   
0, 0, 0, 5.101942974761187e-07, 5.502521481706048e-12
0, 0, 1, 4.887442059953173e-07, 5.353928001953676e-12
0, 0, 2, 4.915134468319593e-07, 5.325105483856889e-12
0, 0, 3, 5.090174113320245e-07, 5.713987300619444e-12
0, 0, 4, 4.891151093033841e-07, 5.315302347532452e-12
0, 0, 5, 4.976342324880534e-07, 5.340770729936309e-12
0, 0, 6, 4.814737053493445e-07, 5.21057481583371e-12
0, 0, 7, 4.704809839495283e-07, 5.249823058704187e-12
0, 0, 8, 4.989503850083565e-07, 5.55591295147573e-12
0, 0, 9, 4.992118078916974e-07, 5.590352534639241e-12
0, 0, 10, 4.803267188435711e-07, 5.55455372714861e-12
0, 0, 11, 4.710624352810555e-07, 5.220573315633031e-12
0, 0, 12, 4.990014303984935e-07, 5.361025709385337e-12
0, 0, 13, 5.025256086810259e-07, 5.447206309668922e-12
0, 0, 14, 4.68025518784998e-07, 5.24342681655659e-12
0, 0, 15, 4.676585092511232e-07, 5.363839765861213e-12
0, 0, 16, 4.322950530877279e-07, 4.779653772569087e-12
0, 0, 17, 4.570476335175044e-07, 5.050927344382084e-12
0, 0, 18, 4.985429882253811e-07, 5.497838544312655e-12
0, 0, 19, 4.745081412238505e-07, 5.460634218272195e-12
0, 0, 20, 4.850077743867587e-07, 5.461059767916259e-12
0, 0, 21, 4.988489763491089e-07, 5.668136485985366e-12
0, 0, 22, 4.885229145656922e-07, 5.627724387708807e-12
0, 0, 23, 4.919203888675838e-07, 5.734809847326839e-12
0, 0, 24, 4.835712843487272e-07, 5.39312870009443e-12
0, 0, 25, 4.572011107484286e-07, 5.118299214512762e-12
0, 0, 26, 4.580635390993848e-07, 5.215779663105352e-12
0, 0, 27, 4.775711772708746e-07, 5.336481734827044e-12
0, 0, 28, 4.832152171729831e-07, 5.482410755697496e-12
0, 0, 29, 5.202426223149814e-07, 5.686676500175749e-12
0, 0, 30, 5.001904241908051e-07, 5.479353363372033e-12
0, 0, 31, 4.965910420651198e-07, 5.505398557805074e-12
0, 0, 32, 4.491788843097311e-07, 4.893670809030002e-12
0, 0, 33, 4.417853176619246e-07, 5.060070263582484e-12
0, 0, 34, 4.72379269922385e-07, 5.319226229885871e-12
0, 0, 35, 4.767737777910952e-07, 5.297662666094058e-12
0, 0, 36, 5.096941322335624e-07, 5.687262323807054e-12
0, 0, 37, 4.724769269159879e-07, 5.41965190949935e-12
0, 0, 38, 4.791760943589907e-07, 5.501861814726203e-12
0, 0, 39, 4.643845272767066e-07, 5.165023566165212e-12
0, 0, 40, 5.118092758493731e-07, 5.958515203435253e-12
0, 0, 41, 4.711344843144616e-07, 5.144867477993506e-12
0, 0, 42, 5.056249960944115e-07, 5.899153985292729e-12
0, 0, 43, 4.550384460344503e-07, 5.158185800268911e-12
0, 0, 44, 4.726323652448627e-07, 5.381593074934005e-12
0, 0, 45, 4.860763169745042e-07, 5.601298885663136e-12
0, 0, 46, 4.714751753454038e-07, 5.317509622999386e-12
0, 0, 47, 4.758631746426545e-07, 5.692931937579767e-12
0, 0, 48, 4.826746362596168e-07, 5.523707606740425e-12
0, 0, 49, 5.490699663823762e-07, 6.641598126836204e-12
0, 0, 50, 7.906239147814631e-07, 4.042949553833778e-12
0, 0, 51, 8.255028660641983e-07, 4.485335275543702e-12
0, 0, 52, 8.039230579015566e-07, 4.328213559449269e-12
0, 0, 53, 8.283927854790818e-07, 4.587974965835771e-12
0, 0, 54, 8.237145152634184e-07, 4.53645100658205e-12
0, 0, 55, 8.731747129786527e-07, 4.708543749013672e-12
0, 0, 56, 9.035194352691178e-07, 4.799089546863354e-12
0, 0, 57, 8.97976804026257e-07, 4.762946028822255e-12
0, 0, 58, 9.192404490931949e-07, 4.843115878146245e-12
0, 0, 59, 9.733918204801739e-07, 4.971243836069892e-12
0, 0, 60, 9.821767434914364e-07, 5.031369340260175e-12
0, 0, 61, 9.585071438777959e-07, 4.867616135411051e-12
0, 0, 62, 9.84093844635936e-07, 4.924859342765951e-12
0, 0, 63, 1.037206288856396e-06, 5.09753911937253e-12
0, 0, 64, 1.04657544852671e-06, 5.056804685770489e-12
0, 0, 65, 1.078792251973937e-06, 5.182212027330391e-12
0, 0, 66, 1.110363768930256e-06, 5.229982405309968e-12
0, 0, 67, 1.142182327384944e-06, 5.363008923063281e-12
0, 0, 68, 1.152308755081322e-06, 5.358269893612537e-12
0, 0, 69, 1.175181637336209e-06, 5.375295473982402e-12
0, 0, 70, 1.195640493278916e-06, 5.38936527441893e-12
0, 0, 71, 1.252870674761652e-06, 5.572759996385729e-12
0, 0, 72, 1.259286250387959e-06, 5.554601361675719e-12
0, 0, 73, 1.301654720009537e-06, 5.499546409141448e-12
0, 0, 74, 1.358628765046888e-06, 5.675587083830893e-12
0, 0, 75, 1.431422447240038e-06, 5.902823610783949e-12
0, 0, 76, 1.445636485186697e-06, 5.89628042089731e-12
0, 0, 77, 1.495781589255785e-06, 5.936611465430296e-12
0, 0, 78, 1.560885948492796e-06, 6.133706648955297e-12
0, 0, 79, 1.630627480153635e-06, 6.188753775670564e-12
0, 0, 80, 1.625248501113674e-06, 6.068471865987581e-12
0, 0, 81, 1.71086571754131e-06, 6.173138976627416e-12
0, 0, 82, 1.748498675624433e-06, 6.227560746902551e-12
0, 0, 83, 1.869100401563628e-06, 6.415025398088046e-12
0, 0, 84, 2.086173253701418e-06, 6.952324616057977e-12
0, 0, 85, 2.291250893904362e-06, 7.250870472750748e-12
0, 0, 86, 2.752503860392608e-06, 8.257848257429721e-12
0, 0, 87, 3.534593588483403e-06, 9.830761692706293e-12
0, 0, 88, 5.021109700464876e-06, 1.242783415408032e-11
0, 0, 89, 7.44851922718226e-06, 1.596334448998659e-11
0, 0, 90, 1.121816785598639e-05, 2.032297592343511e-11
0, 0, 91, 1.700712346064392e-05, 2.578102170992751e-11
0, 0, 92, 2.495726403139997e-05, 3.190392775131669e-11
0, 0, 93, 3.558201933628879e-05, 3.887782413147216e-11
0, 0, 94, 4.819607420358807e-05, 4.587138929275155e-11
0, 0, 95, 6.238323112484068e-05, 5.274559500917753e-11
0, 0, 96, 7.731063669780269e-05, 5.920815033627105e-11
0, 0, 97, 9.014822717290372e-05, 6.408868582778783e-11
0, 0, 98, 9.640475764172152e-05, 6.496351965007054e-11
0, 0, 99, 8.695646829437464e-05, 5.498105486238163e-11
0, 0, 100, 0.0001181054612970911, 8.763730521826255e-11
0, 0, 101, 0.0001155346617451869, 8.302731976449085e-11
0, 0, 102, 0.000113552829134278, 8.033255184697952e-11
0, 0, 103, 0.0001114038677769713, 7.774275859571835e-11
0, 0, 104, 0.0001104783586924896, 7.684943094293945e-11
0, 0, 105, 0.0001090987134375609, 7.518347567988137e-11
0, 0, 106, 0.0001078065906767733, 7.364165701450401e-11
0, 0, 107, 0.0001070037469617091, 7.334710020017383e-11
0, 0, 108, 0.000105705825262703, 7.189928561790664e-11
0, 0, 109, 0.000104704340628814, 7.105909158858607e-11
0, 0, 110, 0.0001036607063724659, 6.993128680927112e-11
0, 0, 111, 0.0001027209800668061, 6.904248019240947e-11
0, 0, 112, 0.0001016034002532251, 6.830420288454235e-11
0, 0, 113, 0.0001006684033200145, 6.73938504896719e-11
0, 0, 114, 9.97513925540261e-05, 6.676202391723261e-11
0, 0, 115, 9.852966468315572e-05, 6.559425397448098e-11
0, 0, 116, 9.786887676455081e-05, 6.517592818032711e-11
0, 0, 117, 9.687948477221653e-05, 6.427994302647233e-11
0, 0, 118, 9.614757436793298e-05, 6.382107039949896e-11
0, 0, 119, 9.539510210743174e-05, 6.327866759157679e-11
0, 0, 120, 9.458831482334062e-05, 6.269007424019065e-11
0, 0, 121, 9.373595094075426e-05, 6.236895964951051e-11
0, 0, 122, 9.319699893239886e-05, 6.185018408858211e-11
0, 0, 123, 9.223729284713045e-05, 6.109957660189138e-11
0, 0, 124, 9.148786193691194e-05, 6.055969375699049e-11
0, 0, 125, 9.056826093001291e-05, 5.958968956599201e-11
0, 0, 126, 9.003989543998614e-05, 5.964522009469472e-11
0, 0, 127, 8.933497883845121e-05, 5.909855652200362e-11
0, 0, 128, 8.832351886667311e-05, 5.807638447378928e-11
0, 0, 129, 8.795980829745531e-05, 5.810221043035775e-11
0, 0, 130, 8.719927427591756e-05, 5.726182439617587e-11
0, 0, 131, 8.659539889777079e-05, 5.706577807591088e-11
0, 0, 132, 8.606272604083642e-05, 5.678769706577437e-11
0, 0, 133, 8.552713552489877e-05, 5.644390247660699e-11
0, 0, 134, 8.469922613585368e-05, 5.565636958050694e-11
0, 0, 135, 8.392424933845177e-05, 5.516429297444072e-11
0, 0, 136, 8.346443064510822e-05, 5.480747032591735e-11
0, 0, 137, 8.28211268526502e-05, 5.442096291123333e-11
0, 0, 138, 8.24346425361e-05, 5.417166546636328e-11
0, 0, 139, 8.179379801731557e-05, 5.380756485697518e-11
0, 0, 140, 8.117283141473308e-05, 5.339235057584984e-11
0, 0, 141, 8.075146615738049e-05, 5.314495190032577e-11
0, 0, 142, 8.011812315089628e-05, 5.261479338012651e-11
0, 0, 143, 7.986718992469832e-05, 5.253989009061912e-11
0, 0, 144, 7.939805800560862e-05, 5.241218702222638e-11
0, 0, 145, 7.871454727137461e-05, 5.171936610586036e-11
0, 0, 146, 7.836601434974e-05, 5.163590867829751e-11
0, 0, 147, 7.771546370349824e-05, 5.109718980647846e-11
0, 0, 148, 7.715823448961601e-05, 5.092485735507773e-11
0, 0, 149, 7.664436270715669e-05, 5.056880974804831e-11
0, 0, 150, 7.629841275047511e-05, 5.053305345197055e-11
0, 0, 151, 7.591034227516502e-05, 5.015832265435114e-11
0, 0, 152, 7.536986959166825e-05, 4.947219565488801e-11
0, 0, 153, 7.489564450224862e-05, 4.926859360284773e-11
0, 0, 154, 7.475919119315222e-05, 4.918087565186826e-11
0, 0, 155, 7.423175702570006e-05, 4.910744880651518e-11
0, 0, 156, 7.356001879088581e-05, 4.82110236645232e-11
0, 0, 157, 7.320055010495707e-05, 4.817083493442238e-11
0, 0, 158, 7.28460363461636e-05, 4.789088974144798e-11
0, 0, 159, 7.235871453303844e-05, 4.738836148746511e-11
0, 0, 160, 7.195489888545126e-05, 4.736968088178247e-11
0, 0, 161, 7.135295163607225e-05, 4.674177190978563e-11
0, 0, 162, 7.103499956429005e-05, 4.684715134625288e-11
0, 0, 163, 7.070637366268784e-05, 4.631837674691055e-11
0, 0, 164, 7.048941915854812e-05, 4.628110807498304e-11
0, 0, 165, 7.033759902697057e-05, 4.641531727288874e-11
0, 0, 166, 6.977023440413177e-05, 4.563120622007222e-11
0, 0, 167, 6.933807890163735e-05, 4.530359796918221e-11
0, 0, 168, 6.887369090691209e-05, 4.49852815437012e-11
0, 0, 169, 6.883815512992442e-05, 4.507238897714672e-11
0, 0, 170, 6.830019265180454e-05, 4.481465412593717e-11
0, 0, 171, 6.806503370171413e-05, 4.446832512457644e-11
0, 0, 172, 6.753568595740944e-05, 4.406839390093636e-11
0, 0, 173, 6.733697955496609e-05, 4.378527571529157e-11
0, 0, 174, 6.686146662104875e-05, 4.359974769469014e-11
0, 0, 175, 6.642350490437821e-05, 4.328007742330462e-11
0, 0, 176, 6.619159830734134e-05, 4.311217650172498e-11
0, 0, 177, 6.588180258404464e-05, 4.303670796135085e-11
0, 0, 178, 6.578240572707728e-05, 4.299562810277232e-11
0, 0, 179, 6.524987838929519e-05, 4.256797434944661e-11
0, 0, 180, 6.492849934147671e-05, 4.22868192794685e-11
0, 0, 181, 6.471127562690526e-05, 4.20385979700801e-11
0, 0, 182, 6.434104579966515e-05, 4.165696273028509e-11
0, 0, 183, 6.403719453373924e-05, 4.14665804004846e-11
0, 0, 184, 6.376778765115887e-05, 4.118366463356087e-11
0, 0, 185, 6.360427505569533e-05, 4.118907215786753e-11
0, 0, 186, 6.314268102869391e-05, 4.085225433372762e-11
0, 0, 187, 6.271516758715734e-05, 4.034621121048384e-11
0, 0, 188, 6.256862980080768e-05, 4.028828609564106e-11
0, 0, 189, 6.222670344868675e-05, 3.996546515348908e-11
0, 0, 190, 6.189480336615816e-05, 3.972846862716497e-11
0, 0, 191, 6.143496284494177e-05, 3.932104699345107e-11
0, 0, 192, 6.090721944929101e-05, 3.875115500672512e-11
0, 0, 193, 6.039764048182406e-05, 3.827770421899015e-11
0, 0, 194, 6.01311658101622e-05, 3.797137611506345e-11
0, 0, 195, 5.943101132288575e-05, 3.724405627557242e-11
0, 0, 196, 5.897823575651273e-05, 3.67846925674256e-11
0, 0, 197, 5.83645305596292e-05, 3.605520678153935e-11
0, 0, 198, 5.735943341278471e-05, 3.486884942985014e-11
0, 0, 199, 5.533712101168931e-05, 3.234344198710735e-11
