# TOPAS Version: 3.9
# Parameter File: 6.6_50MeV.txt
# Results for scorer: DoseOnRTGrid
# Scored in component: Scorer
# X in 1 bin  of 1 cm
# Y in 1 bin  of 1 cm
# Z in 240 bins of 0.125 cm
# DoseToMedium ( Gy ) : Sum   Standard_Deviation   
0, 0, 0, 1.104189436773595e-06, 7.496459737885287e-12
0, 0, 1, 1.184983261737216e-06, 8.070323259886261e-12
0, 0, 2, 1.159773887593474e-06, 7.88924021205493e-12
0, 0, 3, 1.190028342534788e-06, 7.983205358297331e-12
0, 0, 4, 1.197333972413617e-06, 7.998826301150814e-12
0, 0, 5, 1.22572475902416e-06, 8.240420423830073e-12
0, 0, 6, 1.197626602333912e-06, 7.888967207671857e-12
0, 0, 7, 1.20166396300192e-06, 7.843184457881007e-12
0, 0, 8, 1.198654899781104e-06, 7.877000162555506e-12
0, 0, 9, 1.218477336806245e-06, 8.11843334426544e-12
0, 0, 10, 1.227197685693682e-06, 7.961005936671896e-12
0, 0, 11, 1.229494728249847e-06, 8.036070416584763e-12
0, 0, 12, 1.269709059670276e-06, 8.309019492181975e-12
0, 0, 13, 1.292085357817996e-06, 8.319358076267012e-12
0, 0, 14, 1.321649847341178e-06, 8.394175481690794e-12
0, 0, 15, 1.312146196141839e-06, 8.411710411042444e-12
0, 0, 16, 1.341889515060757e-06, 8.475903486031073e-12
0, 0, 17, 1.3259639217722e-06, 8.283765403648314e-12
0, 0, 18, 1.358882514068682e-06, 8.428380740554624e-12
0, 0, 19, 1.366435753880069e-06, 8.493863792278399e-12
0, 0, 20, 1.401543272550043e-06, 8.589137642686816e-12
0, 0, 21, 1.428861764907197e-06, 8.73044803015054e-12
0, 0, 22, 1.429084591109131e-06, 8.772525820528482e-12
0, 0, 23, 1.450284116799594e-06, 8.970178704770831e-12
0, 0, 24, 1.456367954233428e-06, 8.77349307107855e-12
0, 0, 25, 1.451719413125829e-06, 8.786784368617643e-12
0, 0, 26, 1.440834694221849e-06, 8.554176275377618e-12
0, 0, 27, 1.44090097364824e-06, 8.73042961888003e-12
0, 0, 28, 1.435134322491649e-06, 8.492980915409743e-12
0, 0, 29, 1.53587086515472e-06, 9.210294118169133e-12
0, 0, 30, 1.570490894664545e-06, 9.224685686200469e-12
0, 0, 31, 1.563127398185316e-06, 9.153760481424045e-12
0, 0, 32, 1.586508233231143e-06, 9.204587205716446e-12
0, 0, 33, 1.615668338672549e-06, 9.240351616897253e-12
0, 0, 34, 1.675490466368501e-06, 9.424392262135257e-12
0, 0, 35, 1.768866468410124e-06, 9.875702434473939e-12
0, 0, 36, 1.831857389333891e-06, 1.00381045294931e-11
0, 0, 37, 1.888138967842679e-06, 1.017687687162822e-11
0, 0, 38, 1.929115114762681e-06, 1.025533777329798e-11
0, 0, 39, 2.06831214200065e-06, 1.080151015991232e-11
0, 0, 40, 2.144471409337712e-06, 1.086501042796454e-11
0, 0, 41, 2.22765197577246e-06, 1.123160342574506e-11
0, 0, 42, 2.367217803111998e-06, 1.160295076905507e-11
0, 0, 43, 2.502252982594655e-06, 1.20601375425835e-11
0, 0, 44, 2.633759777381783e-06, 1.229158369352641e-11
0, 0, 45, 2.693386250030017e-06, 1.226607925092959e-11
0, 0, 46, 2.861775328710792e-06, 1.262018856139211e-11
0, 0, 47, 3.123810074612265e-06, 1.350131350671876e-11
0, 0, 48, 3.341198180351057e-06, 1.396118689855353e-11
0, 0, 49, 3.506370831019012e-06, 1.417712970938872e-11
0, 0, 50, 3.626186298788525e-06, 1.426581139953218e-11
0, 0, 51, 3.857417141261976e-06, 1.482672578252103e-11
0, 0, 52, 4.144316790188896e-06, 1.537175323343351e-11
0, 0, 53, 4.417533546074992e-06, 1.603619052791064e-11
0, 0, 54, 4.63210062662256e-06, 1.623066369289677e-11
0, 0, 55, 4.906600224785507e-06, 1.677760629901463e-11
0, 0, 56, 5.207441972743254e-06, 1.734134648247376e-11
0, 0, 57, 5.42750240128953e-06, 1.755721643290328e-11
0, 0, 58, 5.676975433743792e-06, 1.793581217467879e-11
0, 0, 59, 6.027890322002349e-06, 1.855124477515056e-11
0, 0, 60, 6.35415744909551e-06, 1.899462047922535e-11
0, 0, 61, 6.816619134042412e-06, 1.988978112019173e-11
0, 0, 62, 7.168525371525902e-06, 2.025731557348533e-11
0, 0, 63, 7.359482879110146e-06, 2.025335807037051e-11
0, 0, 64, 7.731596269877627e-06, 2.086528128321664e-11
0, 0, 65, 8.134628842526581e-06, 2.137969086405144e-11
0, 0, 66, 8.447569598502014e-06, 2.171659777570518e-11
0, 0, 67, 8.833282663545106e-06, 2.232305220855386e-11
0, 0, 68, 9.320964636572171e-06, 2.302596830150584e-11
0, 0, 69, 9.646323633205611e-06, 2.316259486655336e-11
0, 0, 70, 1.001801774691558e-05, 2.345129428231697e-11
0, 0, 71, 1.044210512191057e-05, 2.398166672604036e-11
0, 0, 72, 1.077169599739136e-05, 2.42781081580832e-11
0, 0, 73, 1.119536409532884e-05, 2.457470642460398e-11
0, 0, 74, 1.169588722405024e-05, 2.527004771647815e-11
0, 0, 75, 1.203108149638865e-05, 2.55894876037372e-11
0, 0, 76, 1.246681858901866e-05, 2.592295455351313e-11
0, 0, 77, 1.30579092001426e-05, 2.658564619291001e-11
0, 0, 78, 1.339842401648639e-05, 2.665711719633658e-11
0, 0, 79, 1.392489321005996e-05, 2.735320756787791e-11
0, 0, 80, 1.434904970665229e-05, 2.770316312194822e-11
0, 0, 81, 1.4771860151086e-05, 2.796533753514308e-11
0, 0, 82, 1.524368326499825e-05, 2.854242488651207e-11
0, 0, 83, 1.553019319544546e-05, 2.856834328765181e-11
0, 0, 84, 1.597885238879826e-05, 2.872705830715662e-11
0, 0, 85, 1.65155615832191e-05, 2.948928200071294e-11
0, 0, 86, 1.661591886659153e-05, 2.906863347088711e-11
0, 0, 87, 1.729495488689281e-05, 3.000595752033838e-11
0, 0, 88, 1.768382571754046e-05, 3.044965629207122e-11
0, 0, 89, 1.808612068998627e-05, 3.064726590048456e-11
0, 0, 90, 1.838816751842387e-05, 3.059425670251325e-11
0, 0, 91, 1.890566454676446e-05, 3.110033659098409e-11
0, 0, 92, 1.941957998496946e-05, 3.151936813876302e-11
0, 0, 93, 1.98047018784564e-05, 3.169787105398924e-11
0, 0, 94, 2.013756784435827e-05, 3.18932304446276e-11
0, 0, 95, 2.043057065748144e-05, 3.199412972459786e-11
0, 0, 96, 2.102839425788261e-05, 3.265243725815556e-11
0, 0, 97, 2.139629577868618e-05, 3.281882565578734e-11
0, 0, 98, 2.170920561184175e-05, 3.286975434456125e-11
0, 0, 99, 2.219365705968812e-05, 3.332143972292741e-11
0, 0, 100, 2.255374602100346e-05, 3.349661391512062e-11
0, 0, 101, 2.285972186655272e-05, 3.346680888728505e-11
0, 0, 102, 2.319001214345917e-05, 3.362931534452073e-11
0, 0, 103, 2.375206167926081e-05, 3.437572523753319e-11
0, 0, 104, 2.417699397483375e-05, 3.450928026046592e-11
0, 0, 105, 2.450461943226401e-05, 3.468865984654306e-11
0, 0, 106, 2.477529233146925e-05, 3.472051488392157e-11
0, 0, 107, 2.531309291953221e-05, 3.520727789829993e-11
0, 0, 108, 2.563392081356142e-05, 3.544928364596657e-11
0, 0, 109, 2.590480835351627e-05, 3.537000123124509e-11
0, 0, 110, 2.631694042065646e-05, 3.573155457258748e-11
0, 0, 111, 2.672334449016489e-05, 3.595086014986739e-11
0, 0, 112, 2.704077269299887e-05, 3.608997642545769e-11
0, 0, 113, 2.736103488132358e-05, 3.622146115770993e-11
0, 0, 114, 2.760139614110813e-05, 3.616839643397833e-11
0, 0, 115, 2.80023850791622e-05, 3.652206671576361e-11
0, 0, 116, 2.830187986546662e-05, 3.670538530113203e-11
0, 0, 117, 2.856334504031111e-05, 3.681553535397492e-11
0, 0, 118, 2.88594401354203e-05, 3.701425601345359e-11
0, 0, 119, 2.914262768172193e-05, 3.71432007025114e-11
0, 0, 120, 2.930115442723036e-05, 3.708818611951803e-11
0, 0, 121, 2.945565393019933e-05, 3.727557191770227e-11
0, 0, 122, 2.970675632241182e-05, 3.716137862570404e-11
0, 0, 123, 3.010380351042841e-05, 3.749203830270574e-11
0, 0, 124, 3.040944466192741e-05, 3.773889756130527e-11
0, 0, 125, 3.07540176436305e-05, 3.799643276938917e-11
0, 0, 126, 3.093326813541353e-05, 3.782593885253075e-11
0, 0, 127, 3.109774115728214e-05, 3.793010129880756e-11
0, 0, 128, 3.143761205137707e-05, 3.828637166069414e-11
0, 0, 129, 3.160795677104034e-05, 3.830283951269216e-11
0, 0, 130, 3.179545456077904e-05, 3.832033493904357e-11
0, 0, 131, 3.198044578311965e-05, 3.839014756204164e-11
0, 0, 132, 3.214351818314753e-05, 3.857898152315202e-11
0, 0, 133, 3.212031879229471e-05, 3.832010634970535e-11
0, 0, 134, 3.23220192512963e-05, 3.843835199755578e-11
0, 0, 135, 3.237530836486258e-05, 3.833830724821656e-11
0, 0, 136, 3.253672912251204e-05, 3.841914108829124e-11
0, 0, 137, 3.281353929196484e-05, 3.863885175904022e-11
0, 0, 138, 3.308264058432542e-05, 3.881641439343175e-11
0, 0, 139, 3.315295907668769e-05, 3.875447321660764e-11
0, 0, 140, 3.327012382214889e-05, 3.87650683520565e-11
0, 0, 141, 3.341900446685031e-05, 3.890083042764555e-11
0, 0, 142, 3.367171302670613e-05, 3.913540748097324e-11
0, 0, 143, 3.370902413735166e-05, 3.891936994629143e-11
0, 0, 144, 3.378064502612688e-05, 3.89111705213299e-11
0, 0, 145, 3.394974191905931e-05, 3.91816161135419e-11
0, 0, 146, 3.401456706342287e-05, 3.89765266586409e-11
0, 0, 147, 3.415181345189922e-05, 3.918668495438853e-11
0, 0, 148, 3.41471350111533e-05, 3.901610830575442e-11
0, 0, 149, 3.422702502575703e-05, 3.907839447815094e-11
0, 0, 150, 3.437080522417091e-05, 3.922311165831318e-11
0, 0, 151, 3.445053516770713e-05, 3.917707113374845e-11
0, 0, 152, 3.42708190146368e-05, 3.891728734662115e-11
0, 0, 153, 3.432454468565993e-05, 3.886032992150756e-11
0, 0, 154, 3.453409590292722e-05, 3.915053564706909e-11
0, 0, 155, 3.4492120903451e-05, 3.892371024375101e-11
0, 0, 156, 3.468840441200882e-05, 3.915678793196367e-11
0, 0, 157, 3.471806121524423e-05, 3.910167247805834e-11
0, 0, 158, 3.476045822026208e-05, 3.90999010149265e-11
0, 0, 159, 3.49772562913131e-05, 3.918700474820477e-11
0, 0, 160, 3.505320637486875e-05, 3.928463435777504e-11
0, 0, 161, 3.503777770674787e-05, 3.909962467522936e-11
0, 0, 162, 3.506238499539904e-05, 3.904771946285422e-11
0, 0, 163, 3.514316995278932e-05, 3.918425379828374e-11
0, 0, 164, 3.517657751217484e-05, 3.909384407527355e-11
0, 0, 165, 3.535619543981738e-05, 3.931707994650757e-11
0, 0, 166, 3.526435830281116e-05, 3.902333699224663e-11
0, 0, 167, 3.531262336764485e-05, 3.909744364568757e-11
0, 0, 168, 3.526440195855685e-05, 3.90704950962569e-11
0, 0, 169, 3.519332676660269e-05, 3.888154870795265e-11
0, 0, 170, 3.52598653989844e-05, 3.894097884363524e-11
0, 0, 171, 3.532953633111902e-05, 3.904227022195403e-11
0, 0, 172, 3.53441973857116e-05, 3.892715336168211e-11
0, 0, 173, 3.525687498040497e-05, 3.879388788964171e-11
0, 0, 174, 3.533949347911403e-05, 3.899539217048109e-11
0, 0, 175, 3.536511212587357e-05, 3.906400548525345e-11
0, 0, 176, 3.541630940162577e-05, 3.903054267117612e-11
0, 0, 177, 3.52954120899085e-05, 3.886719268232654e-11
0, 0, 178, 3.528353045112453e-05, 3.881725886991857e-11
0, 0, 179, 3.532570190145634e-05, 3.887976919689502e-11
0, 0, 180, 3.528497109073214e-05, 3.884560181786975e-11
0, 0, 181, 3.515821299515665e-05, 3.863772690236302e-11
0, 0, 182, 3.507066139718518e-05, 3.844958926469183e-11
0, 0, 183, 3.517149525578134e-05, 3.860527033623049e-11
0, 0, 184, 3.518733137752861e-05, 3.867902600641344e-11
0, 0, 185, 3.509825546643697e-05, 3.851895736082821e-11
0, 0, 186, 3.513452611514367e-05, 3.848513069082609e-11
0, 0, 187, 3.515580101520754e-05, 3.849330017204661e-11
0, 0, 188, 3.523433042573743e-05, 3.854059882735651e-11
0, 0, 189, 3.520665268297307e-05, 3.847245713854458e-11
0, 0, 190, 3.522208135109395e-05, 3.84780631446044e-11
0, 0, 191, 3.50554873875808e-05, 3.832580863968423e-11
0, 0, 192, 3.502928302623332e-05, 3.832978134616389e-11
0, 0, 193, 3.503308107610792e-05, 3.830627268409552e-11
0, 0, 194, 3.492723772069439e-05, 3.816082870503623e-11
0, 0, 195, 3.498051592032425e-05, 3.831041559049029e-11
0, 0, 196, 3.494387419777922e-05, 3.825626140185367e-11
0, 0, 197, 3.49346773873549e-05, 3.83056515947579e-11
0, 0, 198, 3.474858749541454e-05, 3.797442638308857e-11
0, 0, 199, 3.472847674856894e-05, 3.795595713604163e-11
0, 0, 200, 3.472586831776425e-05, 3.794118903965559e-11
0, 0, 201, 3.470223236945458e-05, 3.794449796220133e-11
0, 0, 202, 3.456749618635513e-05, 3.766848144674517e-11
0, 0, 203, 3.454468969721347e-05, 3.776346775886428e-11
0, 0, 204, 3.457179627730511e-05, 3.784763102982491e-11
0, 0, 205, 3.444694812060334e-05, 3.763652121954973e-11
0, 0, 206, 3.446474147494882e-05, 3.778164220343982e-11
0, 0, 207, 3.427955380175263e-05, 3.75211562344096e-11
0, 0, 208, 3.426056355237961e-05, 3.745859515536413e-11
0, 0, 209, 3.416448453208432e-05, 3.73728766724062e-11
0, 0, 210, 3.421398287173361e-05, 3.756057286254316e-11
0, 0, 211, 3.40998922183644e-05, 3.731989032729895e-11
0, 0, 212, 3.399930210434832e-05, 3.722675602167894e-11
0, 0, 213, 3.393183942534961e-05, 3.718735326179108e-11
0, 0, 214, 3.378044129931368e-05, 3.693488642583777e-11
0, 0, 215, 3.379493136890233e-05, 3.710919873618145e-11
0, 0, 216, 3.374780862941407e-05, 3.712815786538957e-11
0, 0, 217, 3.351308623678051e-05, 3.669770786314711e-11
0, 0, 218, 3.346864832565188e-05, 3.672846763091838e-11
0, 0, 219, 3.336963345645927e-05, 3.654080614709923e-11
0, 0, 220, 3.336837471579202e-05, 3.657167083523492e-11
0, 0, 221, 3.326580554130487e-05, 3.644466866115523e-11
0, 0, 222, 3.314098285045475e-05, 3.633999171472021e-11
0, 0, 223, 3.30230213876348e-05, 3.618061397157938e-11
0, 0, 224, 3.290991662652232e-05, 3.613333366257652e-11
0, 0, 225, 3.292670589871705e-05, 3.621972721592186e-11
0, 0, 226, 3.277793075540103e-05, 3.603317499116426e-11
0, 0, 227, 3.26992740156129e-05, 3.592046003156334e-11
0, 0, 228, 3.257063508499414e-05, 3.582660874907543e-11
0, 0, 229, 3.235895201214589e-05, 3.5490920028414e-11
0, 0, 230, 3.216288314433768e-05, 3.520374363024263e-11
0, 0, 231, 3.208179987268522e-05, 3.524586094099301e-11
0, 0, 232, 3.18763341056183e-05, 3.495833015948184e-11
0, 0, 233, 3.172576543875039e-05, 3.482183742797965e-11
0, 0, 234, 3.153142097289674e-05, 3.453998402116198e-11
0, 0, 235, 3.127855961793102e-05, 3.418489009804843e-11
0, 0, 236, 3.094615385634825e-05, 3.37109368578194e-11
0, 0, 237, 3.055003617191687e-05, 3.31735355921139e-11
0, 0, 238, 3.010671207448468e-05, 3.24644409617799e-11
0, 0, 239, 2.888671770051587e-05, 3.044436423971575e-11
